{
  "aor": 0.001473719512195122,
  "aqi": 0.005442595853658537,
  "bids_meta": {
    "AcquisitionMatrixPE": 64,
    "AcquisitionNumber": 1,
    "AcquisitionTime": "18:40:49.257500",
    "BandwidthPerPixelPhaseEncode": 26.483,
    "BaseResolution": 64,
    "BodyPartExamined": "HEAD",
    "CogAtlasID": "TODO",
    "ConversionSoftware": "dcm2niix",
    "ConversionSoftwareVersion": "v1.0.20171017 GCC6.3.0",
    "DerivedVendorReportedEchoSpacing": 0.000590001,
    "DeviceSerialNumber": "35177",
    "DwellTime": 4.1e-06,
    "EchoTime": 0.027,
    "EffectiveEchoSpacing": 0.000590001,
    "FlipAngle": 90,
    "ImageOrientationPatientDICOM": [
      0.997695,
      -0.060719,
      0.0302932,
      0.063934,
      0.990732,
      -0.119843
    ],
    "ImageType": [
      "ORIGINAL",
      "PRIMARY",
      "M",
      "ND",
      "NORM",
      "MOSAIC"
    ],
    "InPlanePhaseEncodingDirectionDICOM": "COL",
    "InstitutionAddress": "Scott_Ave._4525_St._Louis_MO_US_63110",
    "InstitutionName": "Washington_University",
    "InstitutionalDepartmentName": "Department",
    "MRAcquisitionType": "2D",
    "MagneticFieldStrength": 3,
    "Manufacturer": "Siemens",
    "ManufacturersModelName": "TrioTim",
    "Modality": "MR",
    "PartialFourier": 1,
    "PatientPosition": "HFS",
    "PercentPhaseFOV": 100,
    "PhaseEncodingDirection": "j-",
    "PhaseEncodingSteps": 64,
    "PhaseResolution": 1,
    "PixelBandwidth": 1905,
    "ProcedureStepDescription": "head_GREENE",
    "ProtocolName": "ep2d_bold_adaptive_feedback_rest",
    "PulseSequenceDetails": "%SiemensSeq%_ep2d_bold",
    "ReceiveCoilName": "HeadMatrix",
    "ReconMatrixPE": 64,
    "RepetitionTime": 2.5,
    "SAR": 0.207246,
    "ScanOptions": "FS",
    "ScanningSequence": "EP",
    "SequenceName": "_epfid2d1_64",
    "SequenceVariant": "SK",
    "SeriesDescription": "ep2d_bold_adaptive_feedback_rest",
    "SeriesNumber": 10,
    "ShimSetting": [
      -204,
      -19532,
      8022,
      129,
      150,
      -454,
      -4,
      -77
    ],
    "SliceThickness": 4,
    "SliceTiming": [
      1.255,
      0,
      1.335,
      0.08,
      1.4125,
      0.1575,
      1.49,
      0.235,
      1.57,
      0.315,
      1.6475,
      0.3925,
      1.725,
      0.4725,
      1.805,
      0.55,
      1.8825,
      0.6275,
      1.9625,
      0.7075,
      2.04,
      0.785,
      2.1175,
      0.8625,
      2.1975,
      0.9425,
      2.275,
      1.02,
      2.3525,
      1.1,
      2.4325,
      1.1775
    ],
    "SoftwareVersions": "syngo_MR_B17",
    "SpacingBetweenSlices": 4,
    "StationName": "MRC35177",
    "TaskName": "restfixationadaptive",
    "TotalReadoutTime": 0.0371701,
    "TxRefAmp": 322.616,
    "dataset": "ds000256",
    "dcmmeta_affine": [
      [
        -3.9907803535461426,
        0.25573617219924927,
        0.0909426361322403,
        123.0160903930664
      ],
      [
        0.24287596344947815,
        3.962928295135498,
        -0.486014723777771,
        -127.98190307617188
      ],
      [
        0.12117267400026321,
        0.4793725907802582,
        3.9693222045898438,
        -75.53914642333984
      ],
      [
        0.0,
        0.0,
        0.0,
        1.0
      ]
    ],
    "dcmmeta_reorient_transform": [
      [
        0.0,
        -1.0,
        0.0,
        63.0
      ],
      [
        1.0,
        0.0,
        0.0,
        0.0
      ],
      [
        0.0,
        0.0,
        1.0,
        0.0
      ],
      [
        0.0,
        0.0,
        0.0,
        1.0
      ]
    ],
    "dcmmeta_shape": [
      64,
      64,
      32,
      164
    ],
    "dcmmeta_slice_dim": 2,
    "dcmmeta_version": 0.6,
    "global": {
      "const": {
        "AccessionNumber": ".",
        "AcquisitionMatrix": [
          64,
          0,
          0,
          64
        ],
        "AngioFlag": "N",
        "BitsAllocated": 16,
        "BitsStored": 12,
        "BodyPartExamined": "HEAD",
        "Columns": 384,
        "DeidentificationMethodCodeSequence": [
          {
            "CodeMeaning": "XNAT Edit Script",
            "CodeValue": "625500",
            "CodingSchemeDesignator": "XNAT",
            "CodingSchemeVersion": "0.1"
          }
        ],
        "EchoNumbers": 1,
        "EchoTime": 27.0,
        "EchoTrainLength": 1,
        "FlipAngle": 90.0,
        "HighBit": 11,
        "ImageOrientationPatient": [
          0.99769510776383,
          -0.060718991022,
          0.03029316875786,
          0.06393404209433,
          0.99073208232188,
          -0.1198431446501
        ],
        "ImagePositionPatient": [
          -818.57012852211,
          -716.89095949855,
          11.973310318257
        ],
        "ImageType": [
          "ORIGINAL",
          "PRIMARY",
          "M",
          "ND",
          "NORM",
          "MOSAIC"
        ],
        "ImagedNucleus": "1H",
        "ImagingFrequency": 123.255846,
        "InPlanePhaseEncodingDirection": "COL",
        "MRAcquisitionType": "2D",
        "MagneticFieldStrength": 3.0,
        "Manufacturer": "SIEMENS",
        "ManufacturerModelName": "TrioTim",
        "Modality": "MR",
        "NumberOfAverages": 1.0,
        "NumberOfPhaseEncodingSteps": 64,
        "PercentPhaseFieldOfView": 100.0,
        "PercentSampling": 100.0,
        "PerformedProcedureStepStartTime": "180037.281000",
        "PhotometricInterpretation": "MONOCHROME2",
        "PixelBandwidth": 1905.0,
        "PixelRepresentation": 0,
        "PixelSpacing": [
          4.0,
          4.0
        ],
        "PositionReferenceIndicator": "",
        "ProtocolName": "ep2d_bold_adaptive_feedback_rest",
        "RepetitionTime": 2500.0,
        "Rows": 384,
        "SAR": 0.20724594892323,
        "SamplesPerPixel": 1,
        "ScanOptions": "FS",
        "ScanningSequence": "EP",
        "SequenceName": "*epfid2d1_64",
        "SequenceVariant": "SK",
        "SeriesDescription": "ep2d_bold_adaptive_feedback_rest",
        "SeriesNumber": 10,
        "SeriesTime": "184051.515000",
        "SliceLocation": -56.612679146107,
        "SliceThickness": 4.0,
        "SmallestImagePixelValue": 0,
        "SoftwareVersions": "syngo MR B17",
        "SpacingBetweenSlices": 3.9999999528551,
        "SpecificCharacterSet": "ISO_IR 100",
        "StudyID": "1",
        "StudyTime": "180037.218000",
        "TransmitCoilName": "Body",
        "VariableFlipAngleFlag": "N",
        "WindowCenterWidthExplanation": "Algo1",
        "dBdt": 0.0
      },
      "slices": {}
    },
    "modality": "bold",
    "subject_id": "CTS213",
    "task_id": "restfixationadaptive",
    "time": {
      "samples": {
        "AcquisitionNumber": [
          1,
          2,
          3,
          4,
          5,
          6,
          7,
          8,
          9,
          10,
          11,
          12,
          13,
          14,
          15,
          16,
          17,
          18,
          19,
          20,
          21,
          22,
          23,
          24,
          25,
          26,
          27,
          28,
          29,
          30,
          31,
          32,
          33,
          34,
          35,
          36,
          37,
          38,
          39,
          40,
          41,
          42,
          43,
          44,
          45,
          46,
          47,
          48,
          49,
          50,
          51,
          52,
          53,
          54,
          55,
          56,
          57,
          58,
          59,
          60,
          61,
          62,
          63,
          64,
          65,
          66,
          67,
          68,
          69,
          70,
          71,
          72,
          73,
          74,
          75,
          76,
          77,
          78,
          79,
          80,
          81,
          82,
          83,
          84,
          85,
          86,
          87,
          88,
          89,
          90,
          91,
          92,
          93,
          94,
          95,
          96,
          97,
          98,
          99,
          100,
          101,
          102,
          103,
          104,
          105,
          106,
          107,
          108,
          109,
          110,
          111,
          112,
          113,
          114,
          115,
          116,
          117,
          118,
          119,
          120,
          121,
          122,
          123,
          124,
          125,
          126,
          127,
          128,
          129,
          130,
          131,
          132,
          133,
          134,
          135,
          136,
          137,
          138,
          139,
          140,
          141,
          142,
          143,
          144,
          145,
          146,
          147,
          148,
          149,
          150,
          151,
          152,
          153,
          154,
          155,
          156,
          157,
          158,
          159,
          160,
          161,
          162,
          163,
          164
        ],
        "AcquisitionTime": [
          "184049.257500",
          "184051.767500",
          "184054.277500",
          "184056.787500",
          "184059.297500",
          "184101.807500",
          "184104.317500",
          "184106.827500",
          "184109.337500",
          "184111.847500",
          "184114.357500",
          "184116.867500",
          "184119.377500",
          "184121.887500",
          "184124.397500",
          "184126.910000",
          "184129.420000",
          "184131.930000",
          "184134.440000",
          "184136.950000",
          "184139.460000",
          "184141.970000",
          "184144.480000",
          "184146.990000",
          "184149.500000",
          "184152.010000",
          "184154.520000",
          "184157.030000",
          "184159.540000",
          "184202.050000",
          "184204.560000",
          "184207.070000",
          "184209.580000",
          "184212.090000",
          "184214.600000",
          "184217.110000",
          "184219.620000",
          "184222.130000",
          "184224.640000",
          "184227.150000",
          "184229.660000",
          "184232.170000",
          "184234.680000",
          "184237.190000",
          "184239.700000",
          "184242.210000",
          "184244.720000",
          "184247.230000",
          "184249.740000",
          "184252.250000",
          "184254.760000",
          "184257.270000",
          "184259.780000",
          "184302.290000",
          "184304.800000",
          "184307.310000",
          "184309.820000",
          "184312.330000",
          "184314.840000",
          "184317.350000",
          "184319.860000",
          "184322.370000",
          "184324.880000",
          "184327.390000",
          "184329.900000",
          "184332.410000",
          "184334.920000",
          "184337.430000",
          "184339.940000",
          "184342.450000",
          "184344.960000",
          "184347.470000",
          "184349.980000",
          "184352.490000",
          "184355.000000",
          "184357.510000",
          "184400.020000",
          "184402.532500",
          "184405.042500",
          "184407.552500",
          "184410.062500",
          "184412.572500",
          "184415.082500",
          "184417.592500",
          "184420.102500",
          "184422.612500",
          "184425.122500",
          "184427.632500",
          "184430.142500",
          "184432.652500",
          "184435.162500",
          "184437.672500",
          "184440.182500",
          "184442.692500",
          "184445.202500",
          "184447.712500",
          "184450.222500",
          "184452.732500",
          "184455.242500",
          "184457.752500",
          "184500.262500",
          "184502.772500",
          "184505.282500",
          "184507.792500",
          "184510.302500",
          "184512.812500",
          "184515.322500",
          "184517.832500",
          "184520.342500",
          "184522.852500",
          "184525.362500",
          "184527.872500",
          "184530.382500",
          "184532.892500",
          "184535.402500",
          "184537.912500",
          "184540.422500",
          "184542.932500",
          "184545.442500",
          "184547.952500",
          "184550.462500",
          "184552.972500",
          "184555.482500",
          "184557.992500",
          "184600.502500",
          "184603.012500",
          "184605.522500",
          "184608.032500",
          "184610.542500",
          "184613.052500",
          "184615.562500",
          "184618.072500",
          "184620.582500",
          "184623.092500",
          "184625.602500",
          "184628.112500",
          "184630.622500",
          "184633.132500",
          "184635.642500",
          "184638.155000",
          "184640.665000",
          "184643.175000",
          "184645.685000",
          "184648.195000",
          "184650.705000",
          "184653.215000",
          "184655.725000",
          "184658.235000",
          "184700.745000",
          "184703.255000",
          "184705.765000",
          "184708.275000",
          "184710.785000",
          "184713.295000",
          "184715.805000",
          "184718.315000",
          "184720.825000",
          "184723.335000",
          "184725.845000",
          "184728.355000",
          "184730.865000",
          "184733.375000",
          "184735.885000",
          "184738.395000"
        ],
        "ContentTime": [
          "184051.515000",
          "184054.015000",
          "184056.515000",
          "184059.015000",
          "184101.515000",
          "184104.015000",
          "184106.515000",
          "184109.015000",
          "184111.515000",
          "184114.015000",
          "184117.015000",
          "184119.515000",
          "184121.515000",
          "184124.015000",
          "184126.515000",
          "184129.015000",
          "184131.515000",
          "184134.015000",
          "184136.515000",
          "184139.015000",
          "184141.515000",
          "184144.015000",
          "184146.515000",
          "184149.015000",
          "184151.515000",
          "184154.015000",
          "184156.515000",
          "184159.015000",
          "184201.515000",
          "184204.015000",
          "184206.515000",
          "184209.515000",
          "184211.515000",
          "184214.015000",
          "184216.515000",
          "184219.015000",
          "184221.515000",
          "184224.015000",
          "184226.515000",
          "184229.015000",
          "184231.515000",
          "184234.015000",
          "184236.515000",
          "184239.015000",
          "184241.515000",
          "184244.015000",
          "184246.515000",
          "184249.015000",
          "184251.515000",
          "184254.015000",
          "184256.515000",
          "184259.515000",
          "184301.515000",
          "184304.015000",
          "184306.515000",
          "184309.015000",
          "184311.515000",
          "184314.015000",
          "184316.515000",
          "184319.015000",
          "184321.515000",
          "184324.015000",
          "184326.515000",
          "184329.015000",
          "184331.515000",
          "184334.015000",
          "184336.515000",
          "184339.015000",
          "184341.515000",
          "184344.015000",
          "184346.515000",
          "184349.015000",
          "184351.515000",
          "184354.015000",
          "184356.515000",
          "184359.015000",
          "184401.515000",
          "184404.015000",
          "184406.515000",
          "184409.515000",
          "184411.515000",
          "184414.015000",
          "184416.515000",
          "184419.515000",
          "184421.515000",
          "184424.015000",
          "184426.515000",
          "184429.515000",
          "184431.515000",
          "184434.015000",
          "184436.515000",
          "184439.515000",
          "184441.515000",
          "184444.015000",
          "184446.515000",
          "184449.515000",
          "184451.515000",
          "184454.015000",
          "184456.515000",
          "184459.515000",
          "184501.515000",
          "184504.015000",
          "184506.515000",
          "184509.015000",
          "184511.515000",
          "184514.015000",
          "184516.515000",
          "184519.015000",
          "184521.515000",
          "184524.015000",
          "184526.515000",
          "184529.015000",
          "184531.515000",
          "184534.015000",
          "184536.515000",
          "184539.515000",
          "184541.515000",
          "184544.015000",
          "184546.515000",
          "184549.515000",
          "184551.515000",
          "184554.015000",
          "184556.515000",
          "184559.015000",
          "184601.515000",
          "184604.015000",
          "184606.515000",
          "184609.015000",
          "184611.515000",
          "184614.015000",
          "184616.515000",
          "184619.015000",
          "184621.515000",
          "184624.015000",
          "184626.515000",
          "184629.015000",
          "184631.515000",
          "184634.015000",
          "184636.515000",
          "184639.015000",
          "184641.515000",
          "184644.015000",
          "184646.515000",
          "184649.015000",
          "184651.515000",
          "184654.015000",
          "184656.515000",
          "184659.015000",
          "184701.515000",
          "184704.015000",
          "184706.515000",
          "184709.015000",
          "184711.515000",
          "184714.015000",
          "184716.515000",
          "184719.015000",
          "184721.515000",
          "184724.015000",
          "184726.515000",
          "184729.015000",
          "184731.515000",
          "184734.515000",
          "184736.515000",
          "184739.000000"
        ],
        "InstanceCreationTime": [
          "184051.515000",
          "184054.015000",
          "184056.515000",
          "184059.015000",
          "184101.515000",
          "184104.015000",
          "184106.515000",
          "184109.015000",
          "184111.515000",
          "184114.015000",
          "184117.015000",
          "184119.515000",
          "184121.515000",
          "184124.015000",
          "184126.515000",
          "184129.015000",
          "184131.515000",
          "184134.015000",
          "184136.515000",
          "184139.015000",
          "184141.515000",
          "184144.015000",
          "184146.515000",
          "184149.015000",
          "184151.515000",
          "184154.015000",
          "184156.515000",
          "184159.015000",
          "184201.515000",
          "184204.015000",
          "184206.515000",
          "184209.515000",
          "184211.515000",
          "184214.015000",
          "184216.515000",
          "184219.015000",
          "184221.515000",
          "184224.015000",
          "184226.515000",
          "184229.015000",
          "184231.515000",
          "184234.015000",
          "184236.515000",
          "184239.015000",
          "184241.515000",
          "184244.015000",
          "184246.515000",
          "184249.015000",
          "184251.515000",
          "184254.015000",
          "184256.515000",
          "184259.515000",
          "184301.515000",
          "184304.015000",
          "184306.515000",
          "184309.015000",
          "184311.515000",
          "184314.015000",
          "184316.515000",
          "184319.015000",
          "184321.515000",
          "184324.015000",
          "184326.515000",
          "184329.015000",
          "184331.515000",
          "184334.015000",
          "184336.515000",
          "184339.015000",
          "184341.515000",
          "184344.015000",
          "184346.515000",
          "184349.015000",
          "184351.515000",
          "184354.015000",
          "184356.515000",
          "184359.015000",
          "184401.515000",
          "184404.015000",
          "184406.515000",
          "184409.515000",
          "184411.515000",
          "184414.015000",
          "184416.515000",
          "184419.515000",
          "184421.515000",
          "184424.015000",
          "184426.515000",
          "184429.515000",
          "184431.515000",
          "184434.015000",
          "184436.515000",
          "184439.515000",
          "184441.515000",
          "184444.015000",
          "184446.515000",
          "184449.515000",
          "184451.515000",
          "184454.015000",
          "184456.515000",
          "184459.515000",
          "184501.515000",
          "184504.015000",
          "184506.515000",
          "184509.015000",
          "184511.515000",
          "184514.015000",
          "184516.515000",
          "184519.015000",
          "184521.515000",
          "184524.015000",
          "184526.515000",
          "184529.015000",
          "184531.515000",
          "184534.015000",
          "184536.515000",
          "184539.515000",
          "184541.515000",
          "184544.015000",
          "184546.515000",
          "184549.515000",
          "184551.515000",
          "184554.015000",
          "184556.515000",
          "184559.015000",
          "184601.515000",
          "184604.015000",
          "184606.515000",
          "184609.015000",
          "184611.515000",
          "184614.015000",
          "184616.515000",
          "184619.015000",
          "184621.515000",
          "184624.015000",
          "184626.515000",
          "184629.015000",
          "184631.515000",
          "184634.015000",
          "184636.515000",
          "184639.015000",
          "184641.515000",
          "184644.015000",
          "184646.515000",
          "184649.015000",
          "184651.515000",
          "184654.015000",
          "184656.515000",
          "184659.015000",
          "184701.515000",
          "184704.015000",
          "184706.515000",
          "184709.015000",
          "184711.515000",
          "184714.015000",
          "184716.515000",
          "184719.015000",
          "184721.515000",
          "184724.015000",
          "184726.515000",
          "184729.015000",
          "184731.515000",
          "184734.515000",
          "184736.515000",
          "184739.000000"
        ],
        "InstanceNumber": [
          1,
          2,
          3,
          4,
          5,
          6,
          7,
          8,
          9,
          10,
          11,
          12,
          13,
          14,
          15,
          16,
          17,
          18,
          19,
          20,
          21,
          22,
          23,
          24,
          25,
          26,
          27,
          28,
          29,
          30,
          31,
          32,
          33,
          34,
          35,
          36,
          37,
          38,
          39,
          40,
          41,
          42,
          43,
          44,
          45,
          46,
          47,
          48,
          49,
          50,
          51,
          52,
          53,
          54,
          55,
          56,
          57,
          58,
          59,
          60,
          61,
          62,
          63,
          64,
          65,
          66,
          67,
          68,
          69,
          70,
          71,
          72,
          73,
          74,
          75,
          76,
          77,
          78,
          79,
          80,
          81,
          82,
          83,
          84,
          85,
          86,
          87,
          88,
          89,
          90,
          91,
          92,
          93,
          94,
          95,
          96,
          97,
          98,
          99,
          100,
          101,
          102,
          103,
          104,
          105,
          106,
          107,
          108,
          109,
          110,
          111,
          112,
          113,
          114,
          115,
          116,
          117,
          118,
          119,
          120,
          121,
          122,
          123,
          124,
          125,
          126,
          127,
          128,
          129,
          130,
          131,
          132,
          133,
          134,
          135,
          136,
          137,
          138,
          139,
          140,
          141,
          142,
          143,
          144,
          145,
          146,
          147,
          148,
          149,
          150,
          151,
          152,
          153,
          154,
          155,
          156,
          157,
          158,
          159,
          160,
          161,
          162,
          163,
          164
        ],
        "LargestImagePixelValue": [
          938,
          902,
          1037,
          1043,
          1039,
          878,
          909,
          914,
          893,
          1052,
          945,
          919,
          999,
          952,
          930,
          956,
          1014,
          932,
          921,
          929,
          974,
          1057,
          912,
          913,
          905,
          968,
          1063,
          942,
          913,
          1085,
          926,
          1031,
          1055,
          917,
          892,
          915,
          906,
          931,
          918,
          903,
          1053,
          968,
          886,
          1005,
          914,
          925,
          929,
          910,
          1090,
          885,
          910,
          905,
          906,
          1056,
          907,
          908,
          918,
          936,
          961,
          1088,
          951,
          887,
          897,
          1004,
          931,
          927,
          970,
          1068,
          932,
          924,
          910,
          1056,
          906,
          990,
          912,
          938,
          982,
          917,
          892,
          999,
          937,
          1027,
          887,
          905,
          895,
          896,
          1010,
          1041,
          913,
          957,
          1133,
          952,
          906,
          1022,
          900,
          911,
          988,
          892,
          944,
          976,
          990,
          1024,
          893,
          879,
          970,
          1037,
          895,
          890,
          1101,
          878,
          930,
          933,
          1000,
          899,
          940,
          946,
          887,
          897,
          892,
          938,
          899,
          928,
          891,
          1000,
          861,
          929,
          915,
          905,
          1001,
          866,
          1018,
          869,
          1040,
          870,
          1046,
          874,
          1081,
          876,
          983,
          882,
          890,
          923,
          1045,
          868,
          994,
          876,
          919,
          876,
          930,
          1004,
          882,
          892,
          936,
          883,
          939,
          1038,
          877,
          978,
          872,
          981,
          872,
          905,
          929,
          898
        ],
        "WindowCenter": [
          491.0,
          489.0,
          493.0,
          492.0,
          491.0,
          490.0,
          490.0,
          490.0,
          490.0,
          492.0,
          490.0,
          491.0,
          492.0,
          491.0,
          491.0,
          492.0,
          492.0,
          491.0,
          490.0,
          490.0,
          492.0,
          493.0,
          492.0,
          491.0,
          490.0,
          491.0,
          490.0,
          490.0,
          489.0,
          493.0,
          492.0,
          492.0,
          492.0,
          491.0,
          489.0,
          489.0,
          491.0,
          490.0,
          491.0,
          492.0,
          491.0,
          491.0,
          491.0,
          491.0,
          490.0,
          489.0,
          490.0,
          491.0,
          491.0,
          488.0,
          490.0,
          490.0,
          489.0,
          490.0,
          491.0,
          490.0,
          491.0,
          491.0,
          490.0,
          491.0,
          489.0,
          490.0,
          489.0,
          492.0,
          491.0,
          491.0,
          490.0,
          492.0,
          491.0,
          488.0,
          491.0,
          493.0,
          490.0,
          492.0,
          490.0,
          489.0,
          490.0,
          491.0,
          491.0,
          492.0,
          491.0,
          492.0,
          489.0,
          488.0,
          491.0,
          490.0,
          491.0,
          491.0,
          491.0,
          490.0,
          491.0,
          490.0,
          490.0,
          490.0,
          488.0,
          490.0,
          491.0,
          489.0,
          489.0,
          491.0,
          490.0,
          491.0,
          490.0,
          489.0,
          490.0,
          491.0,
          490.0,
          489.0,
          493.0,
          488.0,
          489.0,
          490.0,
          491.0,
          489.0,
          491.0,
          489.0,
          489.0,
          489.0,
          489.0,
          490.0,
          489.0,
          491.0,
          490.0,
          490.0,
          489.0,
          489.0,
          489.0,
          488.0,
          491.0,
          488.0,
          490.0,
          489.0,
          490.0,
          490.0,
          491.0,
          489.0,
          491.0,
          489.0,
          489.0,
          488.0,
          490.0,
          490.0,
          491.0,
          488.0,
          491.0,
          488.0,
          491.0,
          490.0,
          490.0,
          489.0,
          489.0,
          489.0,
          490.0,
          488.0,
