{
  "aor": 0.0034031707317073168,
  "aqi": 0.0061346154878048785,
  "bids_meta": {
    "AcquisitionMatrixPE": 64,
    "AcquisitionNumber": 1,
    "AcquisitionTime": "18:15:51.247500",
    "BandwidthPerPixelPhaseEncode": 26.483,
    "BaseResolution": 64,
    "BodyPartExamined": "HEAD",
    "CogAtlasID": "TODO",
    "ConversionSoftware": "dcm2niix",
    "ConversionSoftwareVersion": "v1.0.20171017 GCC6.3.0",
    "DerivedVendorReportedEchoSpacing": 0.000590001,
    "DeviceSerialNumber": "35177",
    "DwellTime": 4.1e-06,
    "EchoTime": 0.027,
    "EffectiveEchoSpacing": 0.000590001,
    "FlipAngle": 90,
    "ImageOrientationPatientDICOM": [
      0.997695,
      -0.060719,
      0.0302932,
      0.063934,
      0.990732,
      -0.119843
    ],
    "ImageType": [
      "ORIGINAL",
      "PRIMARY",
      "M",
      "ND",
      "NORM",
      "MOSAIC"
    ],
    "InPlanePhaseEncodingDirectionDICOM": "COL",
    "InstitutionAddress": "Scott_Ave._4525_St._Louis_MO_US_63110",
    "InstitutionName": "Washington_University",
    "InstitutionalDepartmentName": "Department",
    "MRAcquisitionType": "2D",
    "MagneticFieldStrength": 3,
    "Manufacturer": "Siemens",
    "ManufacturersModelName": "TrioTim",
    "Modality": "MR",
    "PartialFourier": 1,
    "PatientPosition": "HFS",
    "PercentPhaseFOV": 100,
    "PhaseEncodingDirection": "j-",
    "PhaseEncodingSteps": 64,
    "PhaseResolution": 1,
    "PixelBandwidth": 1905,
    "ProcedureStepDescription": "head_GREENE",
    "ProtocolName": "ep2d_bold_movie_rest",
    "PulseSequenceDetails": "%SiemensSeq%_ep2d_bold",
    "ReceiveCoilName": "HeadMatrix",
    "ReconMatrixPE": 64,
    "RepetitionTime": 2.5,
    "SAR": 0.207246,
    "ScanOptions": "FS",
    "ScanningSequence": "EP",
    "SequenceName": "_epfid2d1_64",
    "SequenceVariant": "SK",
    "SeriesDescription": "ep2d_bold_movie_rest",
    "SeriesNumber": 7,
    "ShimSetting": [
      -204,
      -19532,
      8022,
      129,
      150,
      -454,
      -4,
      -77
    ],
    "SliceThickness": 4,
    "SliceTiming": [
      1.255,
      0,
      1.3325,
      0.0775,
      1.4125,
      0.1575,
      1.49,
      0.235,
      1.5675,
      0.315,
      1.6475,
      0.3925,
      1.725,
      0.47,
      1.805,
      0.55,
      1.8825,
      0.6275,
      1.96,
      0.705,
      2.04,
      0.785,
      2.1175,
      0.8625,
      2.195,
      0.94,
      2.275,
      1.02,
      2.3525,
      1.0975,
      2.4325,
      1.1775
    ],
    "SoftwareVersions": "syngo_MR_B17",
    "SpacingBetweenSlices": 4,
    "StationName": "MRC35177",
    "TaskName": "restmovienofeedback",
    "TotalReadoutTime": 0.0371701,
    "TxRefAmp": 322.616,
    "dataset": "ds000256",
    "dcmmeta_affine": [
      [
        -3.9907803535461426,
        0.25573617219924927,
        0.0909426361322403,
        123.0160903930664
      ],
      [
        0.24287596344947815,
        3.962928295135498,
        -0.486014723777771,
        -127.98190307617188
      ],
      [
        0.12117267400026321,
        0.4793725907802582,
        3.9693222045898438,
        -75.53914642333984
      ],
      [
        0.0,
        0.0,
        0.0,
        1.0
      ]
    ],
    "dcmmeta_reorient_transform": [
      [
        0.0,
        -1.0,
        0.0,
        63.0
      ],
      [
        1.0,
        0.0,
        0.0,
        0.0
      ],
      [
        0.0,
        0.0,
        1.0,
        0.0
      ],
      [
        0.0,
        0.0,
        0.0,
        1.0
      ]
    ],
    "dcmmeta_shape": [
      64,
      64,
      32,
      164
    ],
    "dcmmeta_slice_dim": 2,
    "dcmmeta_version": 0.6,
    "global": {
      "const": {
        "AccessionNumber": ".",
        "AcquisitionMatrix": [
          64,
          0,
          0,
          64
        ],
        "AngioFlag": "N",
        "BitsAllocated": 16,
        "BitsStored": 12,
        "BodyPartExamined": "HEAD",
        "Columns": 384,
        "DeidentificationMethodCodeSequence": [
          {
            "CodeMeaning": "XNAT Edit Script",
            "CodeValue": "625500",
            "CodingSchemeDesignator": "XNAT",
            "CodingSchemeVersion": "0.1"
          }
        ],
        "EchoNumbers": 1,
        "EchoTime": 27.0,
        "EchoTrainLength": 1,
        "FlipAngle": 90.0,
        "HighBit": 11,
        "ImageOrientationPatient": [
          0.99769510776383,
          -0.060718991022,
          0.03029316875786,
          0.06393404209433,
          0.99073208232188,
          -0.1198431446501
        ],
        "ImagePositionPatient": [
          -818.57012852211,
          -716.89095949855,
          11.973310318257
        ],
        "ImageType": [
          "ORIGINAL",
          "PRIMARY",
          "M",
          "ND",
          "NORM",
          "MOSAIC"
        ],
        "ImagedNucleus": "1H",
        "ImagingFrequency": 123.255835,
        "InPlanePhaseEncodingDirection": "COL",
        "MRAcquisitionType": "2D",
        "MagneticFieldStrength": 3.0,
        "Manufacturer": "SIEMENS",
        "ManufacturerModelName": "TrioTim",
        "Modality": "MR",
        "NumberOfAverages": 1.0,
        "NumberOfPhaseEncodingSteps": 64,
        "PercentPhaseFieldOfView": 100.0,
        "PercentSampling": 100.0,
        "PerformedProcedureStepStartTime": "180037.281000",
        "PhotometricInterpretation": "MONOCHROME2",
        "PixelBandwidth": 1905.0,
        "PixelRepresentation": 0,
        "PixelSpacing": [
          4.0,
          4.0
        ],
        "PositionReferenceIndicator": "",
        "ProtocolName": "ep2d_bold_movie_rest",
        "RepetitionTime": 2500.0,
        "Rows": 384,
        "SAR": 0.20724594892323,
        "SamplesPerPixel": 1,
        "ScanOptions": "FS",
        "ScanningSequence": "EP",
        "SequenceName": "*epfid2d1_64",
        "SequenceVariant": "SK",
        "SeriesDescription": "ep2d_bold_movie_rest",
        "SeriesNumber": 7,
        "SeriesTime": "181553.671000",
        "SliceLocation": -56.612679146107,
        "SliceThickness": 4.0,
        "SmallestImagePixelValue": 0,
        "SoftwareVersions": "syngo MR B17",
        "SpacingBetweenSlices": 3.9999999528551,
        "SpecificCharacterSet": "ISO_IR 100",
        "StudyID": "1",
        "StudyTime": "180037.218000",
        "TransmitCoilName": "Body",
        "VariableFlipAngleFlag": "N",
        "WindowCenterWidthExplanation": "Algo1",
        "dBdt": 0.0
      },
      "slices": {}
    },
    "modality": "bold",
    "subject_id": "CTS213",
    "task_id": "restmovienofeedback",
    "time": {
      "samples": {
        "AcquisitionNumber": [
          1,
          2,
          3,
          4,
          5,
          6,
          7,
          8,
          9,
          10,
          11,
          12,
          13,
          14,
          15,
          16,
          17,
          18,
          19,
          20,
          21,
          22,
          23,
          24,
          25,
          26,
          27,
          28,
          29,
          30,
          31,
          32,
          33,
          34,
          35,
          36,
          37,
          38,
          39,
          40,
          41,
          42,
          43,
          44,
          45,
          46,
          47,
          48,
          49,
          50,
          51,
          52,
          53,
          54,
          55,
          56,
          57,
          58,
          59,
          60,
          61,
          62,
          63,
          64,
          65,
          66,
          67,
          68,
          69,
          70,
          71,
          72,
          73,
          74,
          75,
          76,
          77,
          78,
          79,
          80,
          81,
          82,
          83,
          84,
          85,
          86,
          87,
          88,
          89,
          90,
          91,
          92,
          93,
          94,
          95,
          96,
          97,
          98,
          99,
          100,
          101,
          102,
          103,
          104,
          105,
          106,
          107,
          108,
          109,
          110,
          111,
          112,
          113,
          114,
          115,
          116,
          117,
          118,
          119,
          120,
          121,
          122,
          123,
          124,
          125,
          126,
          127,
          128,
          129,
          130,
          131,
          132,
          133,
          134,
          135,
          136,
          137,
          138,
          139,
          140,
          141,
          142,
          143,
          144,
          145,
          146,
          147,
          148,
          149,
          150,
          151,
          152,
          153,
          154,
          155,
          156,
          157,
          158,
          159,
          160,
          161,
          162,
          163,
          164
        ],
        "AcquisitionTime": [
          "181551.247500",
          "181553.757500",
          "181556.267500",
          "181558.777500",
          "181601.287500",
          "181603.797500",
          "181606.307500",
          "181608.817500",
          "181611.327500",
          "181613.837500",
          "181616.347500",
          "181618.857500",
          "181621.367500",
          "181623.877500",
          "181626.387500",
          "181628.897500",
          "181631.407500",
          "181633.917500",
          "181636.427500",
          "181638.937500",
          "181641.447500",
          "181643.957500",
          "181646.467500",
          "181648.977500",
          "181651.487500",
          "181653.997500",
          "181656.507500",
          "181659.017500",
          "181701.527500",
          "181704.037500",
          "181706.547500",
          "181709.057500",
          "181711.567500",
          "181714.077500",
          "181716.590000",
          "181719.100000",
          "181721.610000",
          "181724.120000",
          "181726.630000",
          "181729.140000",
          "181731.650000",
          "181734.160000",
          "181736.670000",
          "181739.180000",
          "181741.690000",
          "181744.200000",
          "181746.710000",
          "181749.220000",
          "181751.730000",
          "181754.240000",
          "181756.750000",
          "181759.260000",
          "181801.770000",
          "181804.280000",
          "181806.790000",
          "181809.300000",
          "181811.810000",
          "181814.320000",
          "181816.830000",
          "181819.340000",
          "181821.850000",
          "181824.360000",
          "181826.870000",
          "181829.380000",
          "181831.890000",
          "181834.400000",
          "181836.910000",
          "181839.420000",
          "181841.930000",
          "181844.440000",
          "181846.950000",
          "181849.460000",
          "181851.970000",
          "181854.480000",
          "181856.990000",
          "181859.500000",
          "181902.010000",
          "181904.520000",
          "181907.030000",
          "181909.540000",
          "181912.050000",
          "181914.560000",
          "181917.070000",
          "181919.580000",
          "181922.090000",
          "181924.600000",
          "181927.110000",
          "181929.620000",
          "181932.130000",
          "181934.640000",
          "181937.150000",
          "181939.660000",
          "181942.170000",
          "181944.680000",
          "181947.190000",
          "181949.700000",
          "181952.212500",
          "181954.722500",
          "181957.232500",
          "181959.742500",
          "182002.252500",
          "182004.762500",
          "182007.272500",
          "182009.782500",
          "182012.292500",
          "182014.802500",
          "182017.312500",
          "182019.822500",
          "182022.332500",
          "182024.842500",
          "182027.352500",
          "182029.862500",
          "182032.372500",
          "182034.882500",
          "182037.392500",
          "182039.902500",
          "182042.412500",
          "182044.922500",
          "182047.432500",
          "182049.942500",
          "182052.452500",
          "182054.962500",
          "182057.472500",
          "182059.982500",
          "182102.492500",
          "182105.002500",
          "182107.512500",
          "182110.022500",
          "182112.532500",
          "182115.042500",
          "182117.552500",
          "182120.062500",
          "182122.572500",
          "182125.082500",
          "182127.592500",
          "182130.102500",
          "182132.612500",
          "182135.122500",
          "182137.632500",
          "182140.142500",
          "182142.652500",
          "182145.162500",
          "182147.672500",
          "182150.182500",
          "182152.692500",
          "182155.202500",
          "182157.712500",
          "182200.222500",
          "182202.732500",
          "182205.242500",
          "182207.752500",
          "182210.262500",
          "182212.772500",
          "182215.282500",
          "182217.792500",
          "182220.302500",
          "182222.812500",
          "182225.322500",
          "182227.832500",
          "182230.345000",
          "182232.855000",
          "182235.365000",
          "182237.875000",
          "182240.385000"
        ],
        "ContentTime": [
          "181553.671000",
          "181556.171000",
          "181558.671000",
          "181601.171000",
          "181603.671000",
          "181606.171000",
          "181608.671000",
          "181611.171000",
          "181613.671000",
          "181616.171000",
          "181618.671000",
          "181621.171000",
          "181623.671000",
          "181626.171000",
          "181628.671000",
          "181631.171000",
          "181633.671000",
          "181636.171000",
          "181638.671000",
          "181641.171000",
          "181643.671000",
          "181646.171000",
          "181648.671000",
          "181651.171000",
          "181653.671000",
          "181656.171000",
          "181658.671000",
          "181701.171000",
          "181703.671000",
          "181706.171000",
          "181708.671000",
          "181711.171000",
          "181713.671000",
          "181716.171000",
          "181718.671000",
          "181721.171000",
          "181723.671000",
          "181726.171000",
          "181728.671000",
          "181731.171000",
          "181733.671000",
          "181736.171000",
          "181738.671000",
          "181741.171000",
          "181743.671000",
          "181746.171000",
          "181748.671000",
          "181751.171000",
          "181753.671000",
          "181756.171000",
          "181758.671000",
          "181801.171000",
          "181803.671000",
          "181806.171000",
          "181808.671000",
          "181811.171000",
          "181813.671000",
          "181816.171000",
          "181818.671000",
          "181821.171000",
          "181823.671000",
          "181826.171000",
          "181828.671000",
          "181831.171000",
          "181833.671000",
          "181836.171000",
          "181838.671000",
          "181841.171000",
          "181843.671000",
          "181846.171000",
          "181848.671000",
          "181851.171000",
          "181853.671000",
          "181856.171000",
          "181858.671000",
          "181901.171000",
          "181903.671000",
          "181906.171000",
          "181908.671000",
          "181911.171000",
          "181913.671000",
          "181916.171000",
          "181918.671000",
          "181921.171000",
          "181923.671000",
          "181926.171000",
          "181928.671000",
          "181931.171000",
          "181933.671000",
          "181936.171000",
          "181938.671000",
          "181941.171000",
          "181943.671000",
          "181946.171000",
          "181948.671000",
          "181951.171000",
          "181953.671000",
          "181956.171000",
          "181958.671000",
          "182001.171000",
          "182003.671000",
          "182006.171000",
          "182008.671000",
          "182011.171000",
          "182013.671000",
          "182016.171000",
          "182018.671000",
          "182021.171000",
          "182023.671000",
          "182026.171000",
          "182028.671000",
          "182031.171000",
          "182033.671000",
          "182036.171000",
          "182038.671000",
          "182041.171000",
          "182043.671000",
          "182046.171000",
          "182048.671000",
          "182051.171000",
          "182053.671000",
          "182056.171000",
          "182058.671000",
          "182101.171000",
          "182103.671000",
          "182106.171000",
          "182108.671000",
          "182111.171000",
          "182113.671000",
          "182116.171000",
          "182118.671000",
          "182121.171000",
          "182123.671000",
          "182126.171000",
          "182128.671000",
          "182131.171000",
          "182133.671000",
          "182136.171000",
          "182138.671000",
          "182141.171000",
          "182143.671000",
          "182146.171000",
          "182148.671000",
          "182151.171000",
          "182153.671000",
          "182156.171000",
          "182158.671000",
          "182201.171000",
          "182203.671000",
          "182206.171000",
          "182208.671000",
          "182211.171000",
          "182213.671000",
          "182216.171000",
          "182218.671000",
          "182221.171000",
          "182223.671000",
          "182226.171000",
          "182228.671000",
          "182231.171000",
          "182233.671000",
          "182236.171000",
          "182238.671000",
          "182240.953000"
        ],
        "InstanceCreationTime": [
          "181553.671000",
          "181556.171000",
          "181558.671000",
          "181601.171000",
          "181603.671000",
          "181606.171000",
          "181608.671000",
          "181611.171000",
          "181613.671000",
          "181616.171000",
          "181618.671000",
          "181621.171000",
          "181623.671000",
          "181626.171000",
          "181628.671000",
          "181631.171000",
          "181633.671000",
          "181636.171000",
          "181638.671000",
          "181641.171000",
          "181643.671000",
          "181646.171000",
          "181648.671000",
          "181651.171000",
          "181653.671000",
          "181656.171000",
          "181658.671000",
          "181701.171000",
          "181703.671000",
          "181706.171000",
          "181708.671000",
          "181711.171000",
          "181713.671000",
          "181716.171000",
          "181718.671000",
          "181721.171000",
          "181723.671000",
          "181726.171000",
          "181728.671000",
          "181731.171000",
          "181733.671000",
          "181736.171000",
          "181738.671000",
          "181741.171000",
          "181743.671000",
          "181746.171000",
          "181748.671000",
          "181751.171000",
          "181753.671000",
          "181756.171000",
          "181758.671000",
          "181801.171000",
          "181803.671000",
          "181806.171000",
          "181808.671000",
          "181811.171000",
          "181813.671000",
          "181816.171000",
          "181818.671000",
          "181821.171000",
          "181823.671000",
          "181826.171000",
          "181828.671000",
          "181831.171000",
          "181833.671000",
          "181836.171000",
          "181838.671000",
          "181841.171000",
          "181843.671000",
          "181846.171000",
          "181848.671000",
          "181851.171000",
          "181853.671000",
          "181856.171000",
          "181858.671000",
          "181901.171000",
          "181903.671000",
          "181906.171000",
          "181908.671000",
          "181911.171000",
          "181913.671000",
          "181916.171000",
          "181918.671000",
          "181921.171000",
          "181923.671000",
          "181926.171000",
          "181928.671000",
          "181931.171000",
          "181933.671000",
          "181936.171000",
          "181938.671000",
          "181941.171000",
          "181943.671000",
          "181946.171000",
          "181948.671000",
          "181951.171000",
          "181953.671000",
          "181956.171000",
          "181958.671000",
          "182001.171000",
          "182003.671000",
          "182006.171000",
          "182008.671000",
          "182011.171000",
          "182013.671000",
          "182016.171000",
          "182018.671000",
          "182021.171000",
          "182023.671000",
          "182026.171000",
          "182028.671000",
          "182031.171000",
          "182033.671000",
          "182036.171000",
          "182038.671000",
          "182041.171000",
          "182043.671000",
          "182046.171000",
          "182048.671000",
          "182051.171000",
          "182053.671000",
          "182056.171000",
          "182058.671000",
          "182101.171000",
          "182103.671000",
          "182106.171000",
          "182108.671000",
          "182111.171000",
          "182113.671000",
          "182116.171000",
          "182118.671000",
          "182121.171000",
          "182123.671000",
          "182126.171000",
          "182128.671000",
          "182131.171000",
          "182133.671000",
          "182136.171000",
          "182138.671000",
          "182141.171000",
          "182143.671000",
          "182146.171000",
          "182148.671000",
          "182151.171000",
          "182153.671000",
          "182156.171000",
          "182158.671000",
          "182201.171000",
          "182203.671000",
          "182206.171000",
          "182208.671000",
          "182211.171000",
          "182213.671000",
          "182216.171000",
          "182218.671000",
          "182221.171000",
          "182223.671000",
          "182226.171000",
          "182228.671000",
          "182231.171000",
          "182233.671000",
          "182236.171000",
          "182238.671000",
          "182240.953000"
        ],
        "InstanceNumber": [
          1,
          2,
          3,
          4,
          5,
          6,
          7,
          8,
          9,
          10,
          11,
          12,
          13,
          14,
          15,
          16,
          17,
          18,
          19,
          20,
          21,
          22,
          23,
          24,
          25,
          26,
          27,
          28,
          29,
          30,
          31,
          32,
          33,
          34,
          35,
          36,
          37,
          38,
          39,
          40,
          41,
          42,
          43,
          44,
          45,
          46,
          47,
          48,
          49,
          50,
          51,
          52,
          53,
          54,
          55,
          56,
          57,
          58,
          59,
          60,
          61,
          62,
          63,
          64,
          65,
          66,
          67,
          68,
          69,
          70,
          71,
          72,
          73,
          74,
          75,
          76,
          77,
          78,
          79,
          80,
          81,
          82,
          83,
          84,
          85,
          86,
          87,
          88,
          89,
          90,
          91,
          92,
          93,
          94,
          95,
          96,
          97,
          98,
          99,
          100,
          101,
          102,
          103,
          104,
          105,
          106,
          107,
          108,
          109,
          110,
          111,
          112,
          113,
          114,
          115,
          116,
          117,
          118,
          119,
          120,
          121,
          122,
          123,
          124,
          125,
          126,
          127,
          128,
          129,
          130,
          131,
          132,
          133,
          134,
          135,
          136,
          137,
          138,
          139,
          140,
          141,
          142,
          143,
          144,
          145,
          146,
          147,
          148,
          149,
          150,
          151,
          152,
          153,
          154,
          155,
          156,
          157,
          158,
          159,
          160,
          161,
          162,
          163,
          164
        ],
        "LargestImagePixelValue": [
          1301,
          1250,
          960,
          999,
          1312,
          1159,
          985,
          1028,
          1251,
          1193,
          994,
          1124,
          1231,
          987,
          940,
          1078,
          1027,
          1203,
          1130,
          926,
          1113,
          1395,
          1051,
          1160,
          1040,
          1030,
          1150,
          1077,
          1260,
          1422,
          1072,
          1009,
          1057,
          1337,
          984,
          1063,
          997,
          1208,
          990,
          1179,
          980,
          1362,
          1049,
          1276,
          1043,
          1036,
          1400,
          1122,
          971,
          1023,
          1262,
          1246,
          952,
          980,
          1171,
          1329,
          1042,
          1413,
          954,
          1297,
          1250,
          1189,
          1166,
          1201,
          1170,
          1102,
          1057,
          1064,
          1218,
          1396,
          1134,
          1115,
          1334,
          1058,
          1059,
          1215,
          1312,
          1064,
          931,
          985,
          1022,
          1479,
          1158,
          1172,
          1147,
          1275,
          1232,
          1305,
          1341,
          1111,
          1136,
          1065,
          1224,
          1178,
          929,
          942,
          1303,
          1269,
          1269,
          1214,
          1035,
          1372,
          1110,
          1063,
          933,
          1054,
          1536,
          1081,
          1061,
          1386,
          953,
          1050,
          1387,
          1027,
          1206,
          1074,
          1075,
          1128,
          1170,
          1192,
          1037,
          1342,
          971,
          1230,
          1048,
          969,
          1430,
          1048,
          1016,
          1257,
          969,
          935,
          1224,
          947,
          969,
          1112,
          1060,
          1039,
          1278,
          926,
          1128,
          1174,
          1211,
          1282,
          1350,
          1147,
          962,
          953,
          963,
          1137,
          1317,
          970,
          1117,
          1049,
          1310,
          995,
          1285,
          1358,
          1192,
          926,
          1023,
          1090,
          1229,
          1181
        ],
        "WindowCenter": [
          491.0,
          490.0,
          488.0,
          488.0,
          492.0,
          489.0,
          487.0,
          488.0,
          490.0,
          490.0,
          488.0,
          489.0,
          490.0,
          488.0,
          488.0,
          489.0,
          490.0,
          489.0,
          489.0,
          487.0,
          490.0,
          490.0,
          487.0,
          488.0,
          487.0,
          489.0,
          489.0,
          489.0,
          491.0,
          492.0,
          489.0,
          487.0,
          489.0,
          492.0,
          488.0,
          489.0,
          490.0,
          491.0,
          490.0,
          490.0,
          489.0,
          492.0,
          489.0,
          491.0,
          488.0,
          489.0,
          492.0,
          490.0,
          488.0,
          488.0,
          490.0,
          490.0,
          488.0,
          490.0,
          491.0,
          491.0,
          489.0,
          491.0,
          488.0,
          492.0,
          490.0,
          489.0,
          490.0,
          490.0,
          489.0,
          489.0,
          489.0,
          490.0,
          491.0,
          492.0,
          489.0,
          491.0,
          491.0,
          490.0,
          490.0,
          490.0,
          490.0,
          488.0,
          487.0,
          489.0,
          488.0,
          492.0,
          491.0,
          492.0,
          490.0,
          490.0,
          490.0,
          492.0,
          492.0,
          489.0,
          490.0,
          489.0,
          490.0,
          491.0,
          488.0,
          488.0,
          492.0,
          491.0,
          491.0,
          490.0,
          491.0,
          492.0,
          488.0,
          487.0,
          487.0,
          490.0,
          492.0,
          489.0,
          489.0,
          491.0,
          487.0,
          490.0,
          492.0,
          489.0,
          491.0,
          489.0,
          490.0,
          490.0,
          491.0,
          491.0,
          488.0,
          491.0,
          489.0,
          491.0,
          489.0,
          488.0,
          491.0,
          487.0,
          489.0,
          492.0,
          488.0,
          487.0,
          490.0,
          487.0,
          488.0,
          490.0,
          489.0,
          489.0,
          491.0,
          488.0,
          492.0,
          491.0,
          492.0,
          491.0,
          491.0,
          490.0,
          488.0,
          487.0,
          488.0,
          491.0,
          491.0,
