{
  "aor": 0.0021258895705521474,
  "aqi": 0.004294538773006135,
  "bids_meta": {
    "AcquisitionMatrixPE": 64,
    "AcquisitionNumber": 1,
    "AcquisitionTime": "18:57:22.495000",
    "BandwidthPerPixelPhaseEncode": 26.483,
    "BaseResolution": 64,
    "BodyPartExamined": "HEAD",
    "CogAtlasID": "TODO",
    "ConversionSoftware": "dcm2niix",
    "ConversionSoftwareVersion": "v1.0.20171017 GCC6.3.0",
    "DerivedVendorReportedEchoSpacing": 0.000590001,
    "DeviceSerialNumber": "35177",
    "DwellTime": 4.1e-06,
    "EchoTime": 0.027,
    "EffectiveEchoSpacing": 0.000590001,
    "FlipAngle": 90,
    "ImageOrientationPatientDICOM": [
      0.997695,
      -0.060719,
      0.0302932,
      0.063934,
      0.990732,
      -0.119843
    ],
    "ImageType": [
      "ORIGINAL",
      "PRIMARY",
      "M",
      "ND",
      "NORM",
      "MOSAIC"
    ],
    "InPlanePhaseEncodingDirectionDICOM": "COL",
    "InstitutionAddress": "Scott_Ave._4525_St._Louis_MO_US_63110",
    "InstitutionName": "Washington_University",
    "InstitutionalDepartmentName": "Department",
    "MRAcquisitionType": "2D",
    "MagneticFieldStrength": 3,
    "Manufacturer": "Siemens",
    "ManufacturersModelName": "TrioTim",
    "Modality": "MR",
    "PartialFourier": 1,
    "PatientPosition": "HFS",
    "PercentPhaseFOV": 100,
    "PhaseEncodingDirection": "j-",
    "PhaseEncodingSteps": 64,
    "PhaseResolution": 1,
    "PixelBandwidth": 1905,
    "ProcedureStepDescription": "head_GREENE",
    "ProtocolName": "ep2d_bold_rest2",
    "PulseSequenceDetails": "%SiemensSeq%_ep2d_bold",
    "ReceiveCoilName": "HeadMatrix",
    "ReconMatrixPE": 64,
    "RepetitionTime": 2.5,
    "SAR": 0.207246,
    "ScanOptions": "FS",
    "ScanningSequence": "EP",
    "SequenceName": "_epfid2d1_64",
    "SequenceVariant": "SK",
    "SeriesDescription": "ep2d_bold_rest2",
    "SeriesNumber": 12,
    "ShimSetting": [
      -204,
      -19532,
      8022,
      129,
      150,
      -454,
      -4,
      -77
    ],
    "SliceThickness": 4,
    "SliceTiming": [
      1.255,
      0,
      1.335,
      0.08,
      1.4125,
      0.1575,
      1.49,
      0.235,
      1.57,
      0.315,
      1.6475,
      0.3925,
      1.725,
      0.4725,
      1.805,
      0.55,
      1.8825,
      0.6275,
      1.9625,
      0.7075,
      2.04,
      0.785,
      2.1175,
      0.8625,
      2.1975,
      0.9425,
      2.275,
      1.02,
      2.3525,
      1.1,
      2.4325,
      1.1775
    ],
    "SoftwareVersions": "syngo_MR_B17",
    "SpacingBetweenSlices": 4,
    "StationName": "MRC35177",
    "TaskName": "restfixationnofeedback",
    "TotalReadoutTime": 0.0371701,
    "TxRefAmp": 322.616,
    "dataset": "ds000256",
    "dcmmeta_affine": [
      [
        -3.9907803535461426,
        0.25573617219924927,
        0.0909426361322403,
        123.0160903930664
      ],
      [
        0.24287596344947815,
        3.962928295135498,
        -0.486014723777771,
        -127.98190307617188
      ],
      [
        0.12117267400026321,
        0.4793725907802582,
        3.9693222045898438,
        -75.53914642333984
      ],
      [
        0.0,
        0.0,
        0.0,
        1.0
      ]
    ],
    "dcmmeta_reorient_transform": [
      [
        0.0,
        -1.0,
        0.0,
        63.0
      ],
      [
        1.0,
        0.0,
        0.0,
        0.0
      ],
      [
        0.0,
        0.0,
        1.0,
        0.0
      ],
      [
        0.0,
        0.0,
        0.0,
        1.0
      ]
    ],
    "dcmmeta_shape": [
      64,
      64,
      32,
      164
    ],
    "dcmmeta_slice_dim": 2,
    "dcmmeta_version": 0.6,
    "global": {
      "const": {
        "AccessionNumber": ".",
        "AcquisitionMatrix": [
          64,
          0,
          0,
          64
        ],
        "AngioFlag": "N",
        "BitsAllocated": 16,
        "BitsStored": 12,
        "BodyPartExamined": "HEAD",
        "Columns": 384,
        "DeidentificationMethodCodeSequence": [
          {
            "CodeMeaning": "XNAT Edit Script",
            "CodeValue": "625500",
            "CodingSchemeDesignator": "XNAT",
            "CodingSchemeVersion": "0.1"
          }
        ],
        "EchoNumbers": 1,
        "EchoTime": 27.0,
        "EchoTrainLength": 1,
        "FlipAngle": 90.0,
        "HighBit": 11,
        "ImageOrientationPatient": [
          0.99769510776383,
          -0.060718991022,
          0.03029316875786,
          0.06393404209433,
          0.99073208232188,
          -0.1198431446501
        ],
        "ImagePositionPatient": [
          -818.57012852211,
          -716.89095949855,
          11.973310318257
        ],
        "ImageType": [
          "ORIGINAL",
          "PRIMARY",
          "M",
          "ND",
          "NORM",
          "MOSAIC"
        ],
        "ImagedNucleus": "1H",
        "ImagingFrequency": 123.255851,
        "InPlanePhaseEncodingDirection": "COL",
        "MRAcquisitionType": "2D",
        "MagneticFieldStrength": 3.0,
        "Manufacturer": "SIEMENS",
        "ManufacturerModelName": "TrioTim",
        "Modality": "MR",
        "NumberOfAverages": 1.0,
        "NumberOfPhaseEncodingSteps": 64,
        "PercentPhaseFieldOfView": 100.0,
        "PercentSampling": 100.0,
        "PerformedProcedureStepStartTime": "180037.281000",
        "PhotometricInterpretation": "MONOCHROME2",
        "PixelBandwidth": 1905.0,
        "PixelRepresentation": 0,
        "PixelSpacing": [
          4.0,
          4.0
        ],
        "PositionReferenceIndicator": "",
        "ProtocolName": "ep2d_bold_rest2",
        "RepetitionTime": 2500.0,
        "Rows": 384,
        "SAR": 0.20724594892323,
        "SamplesPerPixel": 1,
        "ScanOptions": "FS",
        "ScanningSequence": "EP",
        "SequenceName": "*epfid2d1_64",
        "SequenceVariant": "SK",
        "SeriesDescription": "ep2d_bold_rest2",
        "SeriesNumber": 12,
        "SeriesTime": "185724.890000",
        "SliceLocation": -56.612679146107,
        "SliceThickness": 4.0,
        "SmallestImagePixelValue": 0,
        "SoftwareVersions": "syngo MR B17",
        "SpacingBetweenSlices": 3.9999999528551,
        "SpecificCharacterSet": "ISO_IR 100",
        "StudyID": "1",
        "StudyTime": "180037.218000",
        "TransmitCoilName": "Body",
        "VariableFlipAngleFlag": "N",
        "WindowCenterWidthExplanation": "Algo1",
        "dBdt": 0.0
      },
      "slices": {}
    },
    "modality": "bold",
    "subject_id": "CTS213",
    "task_id": "restfixationnofeedback",
    "time": {
      "samples": {
        "AcquisitionNumber": [
          1,
          2,
          3,
          4,
          5,
          6,
          7,
          8,
          9,
          10,
          11,
          12,
          13,
          14,
          15,
          16,
          17,
          18,
          19,
          20,
          21,
          22,
          23,
          24,
          25,
          26,
          27,
          28,
          29,
          30,
          31,
          32,
          33,
          34,
          35,
          36,
          37,
          38,
          39,
          40,
          41,
          42,
          43,
          44,
          45,
          46,
          47,
          48,
          49,
          50,
          51,
          52,
          53,
          54,
          55,
          56,
          57,
          58,
          59,
          60,
          61,
          62,
          63,
          64,
          65,
          66,
          67,
          68,
          69,
          70,
          71,
          72,
          73,
          74,
          75,
          76,
          77,
          78,
          79,
          80,
          81,
          82,
          83,
          84,
          85,
          86,
          87,
          88,
          89,
          90,
          91,
          92,
          93,
          94,
          95,
          96,
          97,
          98,
          99,
          100,
          101,
          102,
          103,
          104,
          105,
          106,
          107,
          108,
          109,
          110,
          111,
          112,
          113,
          114,
          115,
          116,
          117,
          118,
          119,
          120,
          121,
          122,
          123,
          124,
          125,
          126,
          127,
          128,
          129,
          130,
          131,
          132,
          133,
          134,
          135,
          136,
          137,
          138,
          139,
          140,
          141,
          142,
          143,
          144,
          145,
          146,
          147,
          148,
          149,
          150,
          151,
          152,
          153,
          154,
          155,
          156,
          157,
          158,
          159,
          160,
          161,
          162,
          163,
          164
        ],
        "AcquisitionTime": [
          "185722.495000",
          "185725.005000",
          "185727.515000",
          "185730.025000",
          "185732.535000",
          "185735.045000",
          "185737.555000",
          "185740.065000",
          "185742.575000",
          "185745.085000",
          "185747.595000",
          "185750.105000",
          "185752.615000",
          "185755.125000",
          "185757.637500",
          "185800.147500",
          "185802.657500",
          "185805.167500",
          "185807.677500",
          "185810.187500",
          "185812.697500",
          "185815.207500",
          "185817.717500",
          "185820.227500",
          "185822.737500",
          "185825.247500",
          "185827.757500",
          "185830.267500",
          "185832.777500",
          "185835.287500",
          "185837.797500",
          "185840.307500",
          "185842.817500",
          "185845.327500",
          "185847.837500",
          "185850.347500",
          "185852.857500",
          "185855.367500",
          "185857.877500",
          "185900.387500",
          "185902.897500",
          "185905.407500",
          "185907.917500",
          "185910.427500",
          "185912.937500",
          "185915.447500",
          "185917.957500",
          "185920.467500",
          "185922.977500",
          "185925.487500",
          "185927.997500",
          "185930.507500",
          "185933.017500",
          "185935.527500",
          "185938.037500",
          "185940.547500",
          "185943.057500",
          "185945.567500",
          "185948.077500",
          "185950.587500",
          "185953.097500",
          "185955.607500",
          "185958.117500",
          "190000.627500",
          "190003.137500",
          "190005.647500",
          "190008.157500",
          "190010.667500",
          "190013.177500",
          "190015.687500",
          "190018.197500",
          "190020.707500",
          "190023.217500",
          "190025.727500",
          "190028.237500",
          "190030.747500",
          "190033.260000",
          "190035.770000",
          "190038.280000",
          "190040.790000",
          "190043.300000",
          "190045.810000",
          "190048.320000",
          "190050.830000",
          "190053.340000",
          "190055.850000",
          "190058.360000",
          "190100.870000",
          "190103.380000",
          "190105.890000",
          "190108.400000",
          "190110.910000",
          "190113.420000",
          "190115.930000",
          "190118.440000",
          "190120.950000",
          "190123.460000",
          "190125.970000",
          "190128.480000",
          "190130.990000",
          "190133.500000",
          "190136.010000",
          "190138.520000",
          "190141.030000",
          "190143.540000",
          "190146.050000",
          "190148.560000",
          "190151.070000",
          "190153.580000",
          "190156.090000",
          "190158.600000",
          "190201.110000",
          "190203.620000",
          "190206.130000",
          "190208.640000",
          "190211.150000",
          "190213.660000",
          "190216.170000",
          "190218.680000",
          "190221.190000",
          "190223.700000",
          "190226.210000",
          "190228.720000",
          "190231.230000",
          "190233.740000",
          "190236.250000",
          "190238.760000",
          "190241.270000",
          "190243.780000",
          "190246.290000",
          "190248.800000",
          "190251.310000",
          "190253.820000",
          "190256.330000",
          "190258.840000",
          "190301.350000",
          "190303.860000",
          "190306.370000",
          "190308.880000",
          "190311.392500",
          "190313.902500",
          "190316.412500",
          "190318.922500",
          "190321.432500",
          "190323.942500",
          "190326.452500",
          "190328.962500",
          "190331.472500",
          "190333.982500",
          "190336.492500",
          "190339.002500",
          "190341.512500",
          "190344.022500",
          "190346.532500",
          "190349.042500",
          "190351.552500",
          "190354.062500",
          "190356.572500",
          "190359.082500",
          "190401.592500",
          "190404.102500",
          "190406.612500",
          "190409.122500",
          "190411.632500"
        ],
        "ContentTime": [
          "185724.890000",
          "185727.390000",
          "185729.890000",
          "185732.390000",
          "185734.890000",
          "185737.390000",
          "185739.890000",
          "185742.390000",
          "185744.890000",
          "185747.390000",
          "185749.890000",
          "185752.390000",
          "185754.890000",
          "185757.390000",
          "185759.890000",
          "185802.390000",
          "185804.890000",
          "185807.390000",
          "185809.890000",
          "185812.390000",
          "185814.890000",
          "185817.390000",
          "185819.890000",
          "185822.390000",
          "185824.890000",
          "185827.390000",
          "185829.890000",
          "185832.390000",
          "185834.890000",
          "185837.390000",
          "185839.890000",
          "185842.390000",
          "185844.890000",
          "185847.390000",
          "185849.890000",
          "185852.390000",
          "185854.890000",
          "185857.390000",
          "185859.890000",
          "185902.390000",
          "185904.890000",
          "185907.390000",
          "185909.890000",
          "185912.390000",
          "185914.890000",
          "185917.390000",
          "185919.890000",
          "185922.390000",
          "185924.890000",
          "185927.390000",
          "185929.890000",
          "185932.390000",
          "185934.890000",
          "185937.390000",
          "185939.890000",
          "185942.390000",
          "185944.890000",
          "185947.390000",
          "185949.890000",
          "185952.390000",
          "185954.890000",
          "185957.390000",
          "185959.890000",
          "190002.390000",
          "190004.890000",
          "190007.390000",
          "190009.890000",
          "190012.390000",
          "190014.890000",
          "190017.390000",
          "190019.890000",
          "190022.390000",
          "190024.890000",
          "190027.390000",
          "190029.890000",
          "190032.390000",
          "190034.890000",
          "190037.390000",
          "190039.890000",
          "190042.390000",
          "190044.890000",
          "190047.390000",
          "190049.890000",
          "190052.390000",
          "190054.890000",
          "190057.390000",
          "190059.890000",
          "190102.390000",
          "190104.890000",
          "190107.390000",
          "190109.890000",
          "190112.390000",
          "190114.890000",
          "190117.390000",
          "190119.890000",
          "190122.390000",
          "190124.890000",
          "190127.390000",
          "190129.890000",
          "190132.390000",
          "190134.890000",
          "190137.390000",
          "190139.890000",
          "190142.390000",
          "190144.890000",
          "190147.390000",
          "190149.890000",
          "190152.390000",
          "190154.890000",
          "190157.390000",
          "190159.890000",
          "190202.390000",
          "190204.890000",
          "190207.390000",
          "190209.890000",
          "190212.390000",
          "190214.890000",
          "190217.390000",
          "190219.890000",
          "190222.390000",
          "190224.890000",
          "190227.390000",
          "190229.890000",
          "190232.390000",
          "190234.890000",
          "190237.390000",
          "190239.890000",
          "190242.390000",
          "190244.890000",
          "190247.390000",
          "190249.890000",
          "190252.390000",
          "190254.890000",
          "190257.390000",
          "190259.890000",
          "190302.390000",
          "190304.890000",
          "190307.390000",
          "190309.890000",
          "190312.390000",
          "190314.890000",
          "190317.390000",
          "190319.890000",
          "190322.390000",
          "190324.890000",
          "190327.390000",
          "190329.890000",
          "190332.390000",
          "190334.890000",
          "190337.390000",
          "190339.890000",
          "190342.390000",
          "190344.890000",
          "190347.390000",
          "190349.890000",
          "190352.390000",
          "190354.890000",
          "190357.390000",
          "190359.890000",
          "190402.390000",
          "190404.890000",
          "190407.390000",
          "190409.890000",
          "190412.250000"
        ],
        "InstanceCreationTime": [
          "185724.890000",
          "185727.390000",
          "185729.890000",
          "185732.390000",
          "185734.890000",
          "185737.390000",
          "185739.890000",
          "185742.390000",
          "185744.890000",
          "185747.390000",
          "185749.890000",
          "185752.390000",
          "185754.890000",
          "185757.390000",
          "185759.890000",
          "185802.390000",
          "185804.890000",
          "185807.390000",
          "185809.890000",
          "185812.390000",
          "185814.890000",
          "185817.390000",
          "185819.890000",
          "185822.390000",
          "185824.890000",
          "185827.390000",
          "185829.890000",
          "185832.390000",
          "185834.890000",
          "185837.390000",
          "185839.890000",
          "185842.390000",
          "185844.890000",
          "185847.390000",
          "185849.890000",
          "185852.390000",
          "185854.890000",
          "185857.390000",
          "185859.890000",
          "185902.390000",
          "185904.890000",
          "185907.390000",
          "185909.890000",
          "185912.390000",
          "185914.890000",
          "185917.390000",
          "185919.890000",
          "185922.390000",
          "185924.890000",
          "185927.390000",
          "185929.890000",
          "185932.390000",
          "185934.890000",
          "185937.390000",
          "185939.890000",
          "185942.390000",
          "185944.890000",
          "185947.390000",
          "185949.890000",
          "185952.390000",
          "185954.890000",
          "185957.390000",
          "185959.890000",
          "190002.390000",
          "190004.890000",
          "190007.390000",
          "190009.890000",
          "190012.390000",
          "190014.890000",
          "190017.390000",
          "190019.890000",
          "190022.390000",
          "190024.890000",
          "190027.390000",
          "190029.890000",
          "190032.390000",
          "190034.890000",
          "190037.390000",
          "190039.890000",
          "190042.390000",
          "190044.890000",
          "190047.390000",
          "190049.890000",
          "190052.390000",
          "190054.890000",
          "190057.390000",
          "190059.890000",
          "190102.390000",
          "190104.890000",
          "190107.390000",
          "190109.890000",
          "190112.390000",
          "190114.890000",
          "190117.390000",
          "190119.890000",
          "190122.390000",
          "190124.890000",
          "190127.390000",
          "190129.890000",
          "190132.390000",
          "190134.890000",
          "190137.390000",
          "190139.890000",
          "190142.390000",
          "190144.890000",
          "190147.390000",
          "190149.890000",
          "190152.390000",
          "190154.890000",
          "190157.390000",
          "190159.890000",
          "190202.390000",
          "190204.890000",
          "190207.390000",
          "190209.890000",
          "190212.390000",
          "190214.890000",
          "190217.390000",
          "190219.890000",
          "190222.390000",
          "190224.890000",
          "190227.390000",
          "190229.890000",
          "190232.390000",
          "190234.890000",
          "190237.390000",
          "190239.890000",
          "190242.390000",
          "190244.890000",
          "190247.390000",
          "190249.890000",
          "190252.390000",
          "190254.890000",
          "190257.390000",
          "190259.890000",
          "190302.390000",
          "190304.890000",
          "190307.390000",
          "190309.890000",
          "190312.390000",
          "190314.890000",
          "190317.390000",
          "190319.890000",
          "190322.390000",
          "190324.890000",
          "190327.390000",
          "190329.890000",
          "190332.390000",
          "190334.890000",
          "190337.390000",
          "190339.890000",
          "190342.390000",
          "190344.890000",
          "190347.390000",
          "190349.890000",
          "190352.390000",
          "190354.890000",
          "190357.390000",
          "190359.890000",
          "190402.390000",
          "190404.890000",
          "190407.390000",
          "190409.890000",
          "190412.250000"
        ],
        "InstanceNumber": [
          1,
          2,
          3,
          4,
          5,
          6,
          7,
          8,
          9,
          10,
          11,
          12,
          13,
          14,
          15,
          16,
          17,
          18,
          19,
          20,
          21,
          22,
          23,
          24,
          25,
          26,
          27,
          28,
          29,
          30,
          31,
          32,
          33,
          34,
          35,
          36,
          37,
          38,
          39,
          40,
          41,
          42,
          43,
          44,
          45,
          46,
          47,
          48,
          49,
          50,
          51,
          52,
          53,
          54,
          55,
          56,
          57,
          58,
          59,
          60,
          61,
          62,
          63,
          64,
          65,
          66,
          67,
          68,
          69,
          70,
          71,
          72,
          73,
          74,
          75,
          76,
          77,
          78,
          79,
          80,
          81,
          82,
          83,
          84,
          85,
          86,
          87,
          88,
          89,
          90,
          91,
          92,
          93,
          94,
          95,
          96,
          97,
          98,
          99,
          100,
          101,
          102,
          103,
          104,
          105,
          106,
          107,
          108,
          109,
          110,
          111,
          112,
          113,
          114,
          115,
          116,
          117,
          118,
          119,
          120,
          121,
          122,
          123,
          124,
          125,
          126,
          127,
          128,
          129,
          130,
          131,
          132,
          133,
          134,
          135,
          136,
          137,
          138,
          139,
          140,
          141,
          142,
          143,
          144,
          145,
          146,
          147,
          148,
          149,
          150,
          151,
          152,
          153,
          154,
          155,
          156,
          157,
          158,
          159,
          160,
          161,
          162,
          163,
          164
        ],
        "LargestImagePixelValue": [
          1130,
          962,
          916,
          925,
          1192,
          1101,
          1060,
          928,
          1169,
          911,
          893,
          1127,
          984,
          1174,
          1143,
          1042,
          882,
          1108,
          971,
          1146,
          1094,
          1072,
          1113,
          969,
          947,
          916,
          908,
          884,
          1005,
          984,
          945,
          1128,
          1075,
          981,
          1113,
          1061,
          956,
          944,
          997,
          1130,
          1006,
          917,
          1193,
          904,
          1126,
          1161,
          905,
          1180,
          1148,
          972,
          943,
          883,
          1141,
          1086,
          942,
          896,
          1134,
          918,
          1034,
          1143,
          975,
          893,
          919,
          1070,
          1082,
          991,
          968,
          1110,
          1030,
          928,
          1062,
          1095,
          1198,
          908,
          958,
          1092,
          1143,
          926,
          1054,
          971,
          1037,
          1210,
          900,
          1183,
          1067,
          966,
          917,
          1062,
          909,
          1200,
          1121,
          1085,
          1078,
          1088,
          1035,
          1024,
          1089,
          1116,
          1108,
          1167,
          1032,
          960,
          1177,
          912,
          1174,
          920,
          1197,
          918,
          1121,
          914,
          1080,
          1031,
          894,
          1154,
          1191,
          945,
          1096,
          910,
          1015,
          949,
          1115,
          1221,
          934,
          881,
          1219,
          899,
          1102,
          1166,
          904,
          1037,
          951,
          1049,
          950,
          1183,
          908,
          1080,
          1152,
          930,
          1100,
          1165,
          913,
          934,
          889,
          1015,
          1190,
          1142,
          1114,
          918,
          936,
          1182,
          1034,
          1171,
          1162,
          945,
          933,
          1207,
          1011,
          892,
          954,
          1129,
          941,
          1025,
          935,
          888
        ],
        "WindowCenter": [
          495.0,
          491.0,
          487.0,
          489.0,
          491.0,
          490.0,
          490.0,
          488.0,
          492.0,
          489.0,
          489.0,
          492.0,
          490.0,
          492.0,
          492.0,
          490.0,
          488.0,
          490.0,
          489.0,
          492.0,
          490.0,
          490.0,
          491.0,
          490.0,
          491.0,
          489.0,
          489.0,
          489.0,
          490.0,
          490.0,
          489.0,
          492.0,
          490.0,
          489.0,
          492.0,
          491.0,
          490.0,
          491.0,
          492.0,
          492.0,
          490.0,
          491.0,
          493.0,
          491.0,
          490.0,
          490.0,
          490.0,
          492.0,
          490.0,
          490.0,
          490.0,
          489.0,
          493.0,
          492.0,
          491.0,
          488.0,
          492.0,
          491.0,
          491.0,
          493.0,
          491.0,
          489.0,
          490.0,
          492.0,
          491.0,
          489.0,
          491.0,
          492.0,
          492.0,
          491.0,
          492.0,
          492.0,
          493.0,
          490.0,
          491.0,
          492.0,
          492.0,
          490.0,
          492.0,
          490.0,
          492.0,
          493.0,
          488.0,
          492.0,
          491.0,
          490.0,
          490.0,
          491.0,
          490.0,
          493.0,
          491.0,
          490.0,
          493.0,
          492.0,
          490.0,
          491.0,
          492.0,
          492.0,
          491.0,
          492.0,
          492.0,
          490.0,
          493.0,
          491.0,
          492.0,
          490.0,
          493.0,
          489.0,
          490.0,
          490.0,
          491.0,
          491.0,
          489.0,
          491.0,
          492.0,
          489.0,
          491.0,
          491.0,
          492.0,
          490.0,
          491.0,
          492.0,
          489.0,
          490.0,
          492.0,
          490.0,
          492.0,
          493.0,
          490.0,
          491.0,
          491.0,
          490.0,
          491.0,
          494.0,
          491.0,
          493.0,
          493.0,
          490.0,
          491.0,
          492.0,
          488.0,
          489.0,
          488.0,
          493.0,
          493.0,
          492.0,
          491.0,
          489.0,
          491.0,
          493.0,
          490.0,
          492.0,
          491.0,
          490.0,
