{
  "aor": 0.008167621951219515,
  "aqi": 0.006526392256097562,
  "bids_meta": {
    "AcquisitionMatrixPE": 64,
    "AcquisitionNumber": 1,
    "AcquisitionTime": "18:32:26.557500",
    "BandwidthPerPixelPhaseEncode": 26.483,
    "BaseResolution": 64,
    "BodyPartExamined": "HEAD",
    "CogAtlasID": "TODO",
    "ConversionSoftware": "dcm2niix",
    "ConversionSoftwareVersion": "v1.0.20171017 GCC6.3.0",
    "DerivedVendorReportedEchoSpacing": 0.000590001,
    "DeviceSerialNumber": "35177",
    "DwellTime": 4.1e-06,
    "EchoTime": 0.027,
    "EffectiveEchoSpacing": 0.000590001,
    "FlipAngle": 90,
    "ImageOrientationPatientDICOM": [
      0.997695,
      -0.060719,
      0.0302932,
      0.063934,
      0.990732,
      -0.119843
    ],
    "ImageType": [
      "ORIGINAL",
      "PRIMARY",
      "M",
      "ND",
      "NORM",
      "MOSAIC"
    ],
    "InPlanePhaseEncodingDirectionDICOM": "COL",
    "InstitutionAddress": "Scott_Ave._4525_St._Louis_MO_US_63110",
    "InstitutionName": "Washington_University",
    "InstitutionalDepartmentName": "Department",
    "MRAcquisitionType": "2D",
    "MagneticFieldStrength": 3,
    "Manufacturer": "Siemens",
    "ManufacturersModelName": "TrioTim",
    "Modality": "MR",
    "PartialFourier": 1,
    "PatientPosition": "HFS",
    "PercentPhaseFOV": 100,
    "PhaseEncodingDirection": "j-",
    "PhaseEncodingSteps": 64,
    "PhaseResolution": 1,
    "PixelBandwidth": 1905,
    "ProcedureStepDescription": "head_GREENE",
    "ProtocolName": "ep2d_bold_adaptive_feedback_movie_3B",
    "PulseSequenceDetails": "%SiemensSeq%_ep2d_bold",
    "ReceiveCoilName": "HeadMatrix",
    "ReconMatrixPE": 64,
    "RepetitionTime": 2.5,
    "SAR": 0.207246,
    "ScanOptions": "FS",
    "ScanningSequence": "EP",
    "SequenceName": "_epfid2d1_64",
    "SequenceVariant": "SK",
    "SeriesDescription": "ep2d_bold_adaptive_feedback_movie_3B",
    "SeriesNumber": 9,
    "ShimSetting": [
      -204,
      -19532,
      8022,
      129,
      150,
      -454,
      -4,
      -77
    ],
    "SliceThickness": 4,
    "SliceTiming": [
      1.255,
      0,
      1.335,
      0.08,
      1.4125,
      0.1575,
      1.49,
      0.2375,
      1.57,
      0.315,
      1.6475,
      0.3925,
      1.7275,
      0.4725,
      1.805,
      0.55,
      1.8825,
      0.6275,
      1.9625,
      0.7075,
      2.04,
      0.785,
      2.1175,
      0.865,
      2.1975,
      0.9425,
      2.275,
      1.02,
      2.355,
      1.1,
      2.4325,
      1.1775
    ],
    "SoftwareVersions": "syngo_MR_B17",
    "SpacingBetweenSlices": 4,
    "StationName": "MRC35177",
    "TaskName": "restmovieadaptive",
    "TotalReadoutTime": 0.0371701,
    "TxRefAmp": 322.616,
    "dataset": "ds000256",
    "dcmmeta_affine": [
      [
        -3.9907803535461426,
        0.25573617219924927,
        0.0909426361322403,
        123.0160903930664
      ],
      [
        0.24287596344947815,
        3.962928295135498,
        -0.486014723777771,
        -127.98190307617188
      ],
      [
        0.12117267400026321,
        0.4793725907802582,
        3.9693222045898438,
        -75.53914642333984
      ],
      [
        0.0,
        0.0,
        0.0,
        1.0
      ]
    ],
    "dcmmeta_reorient_transform": [
      [
        0.0,
        -1.0,
        0.0,
        63.0
      ],
      [
        1.0,
        0.0,
        0.0,
        0.0
      ],
      [
        0.0,
        0.0,
        1.0,
        0.0
      ],
      [
        0.0,
        0.0,
        0.0,
        1.0
      ]
    ],
    "dcmmeta_shape": [
      64,
      64,
      32,
      164
    ],
    "dcmmeta_slice_dim": 2,
    "dcmmeta_version": 0.6,
    "global": {
      "const": {
        "AccessionNumber": ".",
        "AcquisitionMatrix": [
          64,
          0,
          0,
          64
        ],
        "AngioFlag": "N",
        "BitsAllocated": 16,
        "BitsStored": 12,
        "BodyPartExamined": "HEAD",
        "Columns": 384,
        "DeidentificationMethodCodeSequence": [
          {
            "CodeMeaning": "XNAT Edit Script",
            "CodeValue": "625500",
            "CodingSchemeDesignator": "XNAT",
            "CodingSchemeVersion": "0.1"
          }
        ],
        "EchoNumbers": 1,
        "EchoTime": 27.0,
        "EchoTrainLength": 1,
        "FlipAngle": 90.0,
        "HighBit": 11,
        "ImageOrientationPatient": [
          0.99769510776383,
          -0.060718991022,
          0.03029316875786,
          0.06393404209433,
          0.99073208232188,
          -0.1198431446501
        ],
        "ImagePositionPatient": [
          -818.57012852211,
          -716.89095949855,
          11.973310318257
        ],
        "ImageType": [
          "ORIGINAL",
          "PRIMARY",
          "M",
          "ND",
          "NORM",
          "MOSAIC"
        ],
        "ImagedNucleus": "1H",
        "ImagingFrequency": 123.255838,
        "InPlanePhaseEncodingDirection": "COL",
        "MRAcquisitionType": "2D",
        "MagneticFieldStrength": 3.0,
        "Manufacturer": "SIEMENS",
        "ManufacturerModelName": "TrioTim",
        "Modality": "MR",
        "NumberOfAverages": 1.0,
        "NumberOfPhaseEncodingSteps": 64,
        "PercentPhaseFieldOfView": 100.0,
        "PercentSampling": 100.0,
        "PerformedProcedureStepStartTime": "180037.281000",
        "PhotometricInterpretation": "MONOCHROME2",
        "PixelBandwidth": 1905.0,
        "PixelRepresentation": 0,
        "PixelSpacing": [
          4.0,
          4.0
        ],
        "PositionReferenceIndicator": "",
        "ProtocolName": "ep2d_bold_adaptive_feedback_movie_3B",
        "RepetitionTime": 2500.0,
        "Rows": 384,
        "SAR": 0.20724594892323,
        "SamplesPerPixel": 1,
        "ScanOptions": "FS",
        "ScanningSequence": "EP",
        "SequenceName": "*epfid2d1_64",
        "SequenceVariant": "SK",
        "SeriesDescription": "ep2d_bold_adaptive_feedback_movie_3B",
        "SeriesNumber": 9,
        "SeriesTime": "183228.312000",
        "SliceLocation": -56.612679146107,
        "SliceThickness": 4.0,
        "SmallestImagePixelValue": 0,
        "SoftwareVersions": "syngo MR B17",
        "SpacingBetweenSlices": 3.9999999528551,
        "SpecificCharacterSet": "ISO_IR 100",
        "StudyID": "1",
        "StudyTime": "180037.218000",
        "TransmitCoilName": "Body",
        "VariableFlipAngleFlag": "N",
        "WindowCenterWidthExplanation": "Algo1",
        "dBdt": 0.0
      },
      "slices": {}
    },
    "modality": "bold",
    "subject_id": "CTS213",
    "task_id": "restmovieadaptive",
    "time": {
      "samples": {
        "AcquisitionNumber": [
          1,
          2,
          3,
          4,
          5,
          6,
          7,
          8,
          9,
          10,
          11,
          12,
          13,
          14,
          15,
          16,
          17,
          18,
          19,
          20,
          21,
          22,
          23,
          24,
          25,
          26,
          27,
          28,
          29,
          30,
          31,
          32,
          33,
          34,
          35,
          36,
          37,
          38,
          39,
          40,
          41,
          42,
          43,
          44,
          45,
          46,
          47,
          48,
          49,
          50,
          51,
          52,
          53,
          54,
          55,
          56,
          57,
          58,
          59,
          60,
          61,
          62,
          63,
          64,
          65,
          66,
          67,
          68,
          69,
          70,
          71,
          72,
          73,
          74,
          75,
          76,
          77,
          78,
          79,
          80,
          81,
          82,
          83,
          84,
          85,
          86,
          87,
          88,
          89,
          90,
          91,
          92,
          93,
          94,
          95,
          96,
          97,
          98,
          99,
          100,
          101,
          102,
          103,
          104,
          105,
          106,
          107,
          108,
          109,
          110,
          111,
          112,
          113,
          114,
          115,
          116,
          117,
          118,
          119,
          120,
          121,
          122,
          123,
          124,
          125,
          126,
          127,
          128,
          129,
          130,
          131,
          132,
          133,
          134,
          135,
          136,
          137,
          138,
          139,
          140,
          141,
          142,
          143,
          144,
          145,
          146,
          147,
          148,
          149,
          150,
          151,
          152,
          153,
          154,
          155,
          156,
          157,
          158,
          159,
          160,
          161,
          162,
          163,
          164
        ],
        "AcquisitionTime": [
          "183226.557500",
          "183229.067500",
          "183231.577500",
          "183234.087500",
          "183236.597500",
          "183239.107500",
          "183241.617500",
          "183244.127500",
          "183246.640000",
          "183249.150000",
          "183251.660000",
          "183254.170000",
          "183256.680000",
          "183259.190000",
          "183301.700000",
          "183304.210000",
          "183306.720000",
          "183309.230000",
          "183311.740000",
          "183314.250000",
          "183316.760000",
          "183319.270000",
          "183321.780000",
          "183324.290000",
          "183326.800000",
          "183329.310000",
          "183331.820000",
          "183334.330000",
          "183336.840000",
          "183339.350000",
          "183341.860000",
          "183344.370000",
          "183346.880000",
          "183349.390000",
          "183351.900000",
          "183354.410000",
          "183356.920000",
          "183359.430000",
          "183401.940000",
          "183404.450000",
          "183406.960000",
          "183409.470000",
          "183411.980000",
          "183414.490000",
          "183417.000000",
          "183419.510000",
          "183422.020000",
          "183424.530000",
          "183427.040000",
          "183429.550000",
          "183432.060000",
          "183434.570000",
          "183437.080000",
          "183439.590000",
          "183442.100000",
          "183444.610000",
          "183447.120000",
          "183449.630000",
          "183452.140000",
          "183454.650000",
          "183457.160000",
          "183459.670000",
          "183502.180000",
          "183504.690000",
          "183507.200000",
          "183509.710000",
          "183512.220000",
          "183514.730000",
          "183517.240000",
          "183519.750000",
          "183522.262500",
          "183524.772500",
          "183527.282500",
          "183529.792500",
          "183532.302500",
          "183534.812500",
          "183537.322500",
          "183539.832500",
          "183542.342500",
          "183544.852500",
          "183547.362500",
          "183549.872500",
          "183552.382500",
          "183554.892500",
          "183557.402500",
          "183559.912500",
          "183602.422500",
          "183604.932500",
          "183607.442500",
          "183609.952500",
          "183612.462500",
          "183614.972500",
          "183617.482500",
          "183619.992500",
          "183622.502500",
          "183625.012500",
          "183627.522500",
          "183630.032500",
          "183632.542500",
          "183635.052500",
          "183637.562500",
          "183640.072500",
          "183642.582500",
          "183645.092500",
          "183647.602500",
          "183650.112500",
          "183652.622500",
          "183655.132500",
          "183657.642500",
          "183700.152500",
          "183702.662500",
          "183705.172500",
          "183707.682500",
          "183710.192500",
          "183712.702500",
          "183715.212500",
          "183717.722500",
          "183720.232500",
          "183722.742500",
          "183725.252500",
          "183727.762500",
          "183730.272500",
          "183732.782500",
          "183735.292500",
          "183737.802500",
          "183740.312500",
          "183742.822500",
          "183745.332500",
          "183747.842500",
          "183750.352500",
          "183752.862500",
          "183755.372500",
          "183757.885000",
          "183800.395000",
          "183802.905000",
          "183805.415000",
          "183807.925000",
          "183810.435000",
          "183812.945000",
          "183815.455000",
          "183817.965000",
          "183820.475000",
          "183822.985000",
          "183825.495000",
          "183828.005000",
          "183830.515000",
          "183833.025000",
          "183835.535000",
          "183838.045000",
          "183840.555000",
          "183843.065000",
          "183845.575000",
          "183848.085000",
          "183850.595000",
          "183853.105000",
          "183855.615000",
          "183858.125000",
          "183900.635000",
          "183903.145000",
          "183905.655000",
          "183908.165000",
          "183910.675000",
          "183913.185000",
          "183915.695000"
        ],
        "ContentTime": [
          "183228.312000",
          "183230.812000",
          "183233.312000",
          "183235.812000",
          "183238.312000",
          "183240.812000",
          "183243.312000",
          "183245.812000",
          "183248.312000",
          "183250.812000",
          "183253.312000",
          "183255.812000",
          "183258.312000",
          "183300.812000",
          "183303.312000",
          "183305.812000",
          "183308.312000",
          "183310.812000",
          "183313.312000",
          "183315.812000",
          "183318.312000",
          "183320.812000",
          "183323.312000",
          "183325.812000",
          "183328.312000",
          "183330.812000",
          "183333.312000",
          "183335.812000",
          "183338.312000",
          "183340.812000",
          "183343.312000",
          "183345.812000",
          "183348.312000",
          "183350.812000",
          "183353.312000",
          "183355.812000",
          "183358.312000",
          "183400.812000",
          "183403.312000",
          "183405.812000",
          "183408.312000",
          "183410.812000",
          "183413.312000",
          "183415.812000",
          "183418.312000",
          "183420.812000",
          "183423.312000",
          "183425.812000",
          "183428.312000",
          "183430.812000",
          "183433.312000",
          "183435.812000",
          "183438.312000",
          "183440.812000",
          "183443.312000",
          "183445.812000",
          "183448.312000",
          "183450.812000",
          "183453.312000",
          "183455.812000",
          "183458.312000",
          "183500.812000",
          "183503.312000",
          "183505.812000",
          "183508.312000",
          "183510.812000",
          "183513.312000",
          "183515.812000",
          "183518.312000",
          "183520.812000",
          "183523.312000",
          "183525.812000",
          "183528.312000",
          "183530.812000",
          "183533.312000",
          "183535.812000",
          "183538.312000",
          "183540.812000",
          "183543.312000",
          "183545.812000",
          "183548.312000",
          "183550.812000",
          "183553.312000",
          "183555.812000",
          "183558.312000",
          "183600.812000",
          "183603.312000",
          "183605.812000",
          "183608.312000",
          "183610.812000",
          "183613.312000",
          "183615.812000",
          "183618.312000",
          "183620.812000",
          "183623.312000",
          "183625.812000",
          "183628.312000",
          "183630.812000",
          "183633.312000",
          "183635.812000",
          "183638.312000",
          "183640.812000",
          "183643.312000",
          "183645.812000",
          "183648.312000",
          "183650.812000",
          "183653.312000",
          "183655.812000",
          "183658.312000",
          "183700.812000",
          "183703.312000",
          "183705.812000",
          "183708.312000",
          "183710.812000",
          "183713.312000",
          "183715.812000",
          "183718.312000",
          "183720.812000",
          "183723.312000",
          "183725.812000",
          "183728.312000",
          "183730.812000",
          "183733.312000",
          "183735.812000",
          "183738.312000",
          "183740.812000",
          "183743.312000",
          "183745.812000",
          "183748.312000",
          "183750.812000",
          "183753.312000",
          "183755.812000",
          "183758.312000",
          "183800.812000",
          "183803.312000",
          "183805.812000",
          "183808.312000",
          "183810.812000",
          "183813.312000",
          "183815.812000",
          "183818.312000",
          "183820.812000",
          "183823.312000",
          "183825.812000",
          "183828.312000",
          "183830.812000",
          "183833.312000",
          "183835.812000",
          "183838.312000",
          "183840.812000",
          "183843.312000",
          "183845.812000",
          "183848.312000",
          "183850.812000",
          "183853.312000",
          "183855.812000",
          "183858.312000",
          "183900.812000",
          "183903.312000",
          "183905.812000",
          "183908.312000",
          "183910.812000",
          "183913.312000",
          "183915.609000"
        ],
        "InstanceCreationTime": [
          "183228.312000",
          "183230.812000",
          "183233.312000",
          "183235.812000",
          "183238.312000",
          "183240.812000",
          "183243.312000",
          "183245.812000",
          "183248.312000",
          "183250.812000",
          "183253.312000",
          "183255.812000",
          "183258.312000",
          "183300.812000",
          "183303.312000",
          "183305.812000",
          "183308.312000",
          "183310.812000",
          "183313.312000",
          "183315.812000",
          "183318.312000",
          "183320.812000",
          "183323.312000",
          "183325.812000",
          "183328.312000",
          "183330.812000",
          "183333.312000",
          "183335.812000",
          "183338.312000",
          "183340.812000",
          "183343.312000",
          "183345.812000",
          "183348.312000",
          "183350.812000",
          "183353.312000",
          "183355.812000",
          "183358.312000",
          "183400.812000",
          "183403.312000",
          "183405.812000",
          "183408.312000",
          "183410.812000",
          "183413.312000",
          "183415.812000",
          "183418.312000",
          "183420.812000",
          "183423.312000",
          "183425.812000",
          "183428.312000",
          "183430.812000",
          "183433.312000",
          "183435.812000",
          "183438.312000",
          "183440.812000",
          "183443.312000",
          "183445.812000",
          "183448.312000",
          "183450.812000",
          "183453.312000",
          "183455.812000",
          "183458.312000",
          "183500.812000",
          "183503.312000",
          "183505.812000",
          "183508.312000",
          "183510.812000",
          "183513.312000",
          "183515.812000",
          "183518.312000",
          "183520.812000",
          "183523.312000",
          "183525.812000",
          "183528.312000",
          "183530.812000",
          "183533.312000",
          "183535.812000",
          "183538.312000",
          "183540.812000",
          "183543.312000",
          "183545.812000",
          "183548.312000",
          "183550.812000",
          "183553.312000",
          "183555.812000",
          "183558.312000",
          "183600.812000",
          "183603.312000",
          "183605.812000",
          "183608.312000",
          "183610.812000",
          "183613.312000",
          "183615.812000",
          "183618.312000",
          "183620.812000",
          "183623.312000",
          "183625.812000",
          "183628.312000",
          "183630.812000",
          "183633.312000",
          "183635.812000",
          "183638.312000",
          "183640.812000",
          "183643.312000",
          "183645.812000",
          "183648.312000",
          "183650.812000",
          "183653.312000",
          "183655.812000",
          "183658.312000",
          "183700.812000",
          "183703.312000",
          "183705.812000",
          "183708.312000",
          "183710.812000",
          "183713.312000",
          "183715.812000",
          "183718.312000",
          "183720.812000",
          "183723.312000",
          "183725.812000",
          "183728.312000",
          "183730.812000",
          "183733.312000",
          "183735.812000",
          "183738.312000",
          "183740.812000",
          "183743.312000",
          "183745.812000",
          "183748.312000",
          "183750.812000",
          "183753.312000",
          "183755.812000",
          "183758.312000",
          "183800.812000",
          "183803.312000",
          "183805.812000",
          "183808.312000",
          "183810.812000",
          "183813.312000",
          "183815.812000",
          "183818.312000",
          "183820.812000",
          "183823.312000",
          "183825.812000",
          "183828.312000",
          "183830.812000",
          "183833.312000",
          "183835.812000",
          "183838.312000",
          "183840.812000",
          "183843.312000",
          "183845.812000",
          "183848.312000",
          "183850.812000",
          "183853.312000",
          "183855.812000",
          "183858.312000",
          "183900.812000",
          "183903.312000",
          "183905.812000",
          "183908.312000",
          "183910.812000",
          "183913.312000",
          "183915.609000"
        ],
        "InstanceNumber": [
          1,
          2,
          3,
          4,
          5,
          6,
          7,
          8,
          9,
          10,
          11,
          12,
          13,
          14,
          15,
          16,
          17,
          18,
          19,
          20,
          21,
          22,
          23,
          24,
          25,
          26,
          27,
          28,
          29,
          30,
          31,
          32,
          33,
          34,
          35,
          36,
          37,
          38,
          39,
          40,
          41,
          42,
          43,
          44,
          45,
          46,
          47,
          48,
          49,
          50,
          51,
          52,
          53,
          54,
          55,
          56,
          57,
          58,
          59,
          60,
          61,
          62,
          63,
          64,
          65,
          66,
          67,
          68,
          69,
          70,
          71,
          72,
          73,
          74,
          75,
          76,
          77,
          78,
          79,
          80,
          81,
          82,
          83,
          84,
          85,
          86,
          87,
          88,
          89,
          90,
          91,
          92,
          93,
          94,
          95,
          96,
          97,
          98,
          99,
          100,
          101,
          102,
          103,
          104,
          105,
          106,
          107,
          108,
          109,
          110,
          111,
          112,
          113,
          114,
          115,
          116,
          117,
          118,
          119,
          120,
          121,
          122,
          123,
          124,
          125,
          126,
          127,
          128,
          129,
          130,
          131,
          132,
          133,
          134,
          135,
          136,
          137,
          138,
          139,
          140,
          141,
          142,
          143,
          144,
          145,
          146,
          147,
          148,
          149,
          150,
          151,
          152,
          153,
          154,
          155,
          156,
          157,
          158,
          159,
          160,
          161,
          162,
          163,
          164
        ],
        "LargestImagePixelValue": [
          1068,
          1021,
          945,
          1081,
          1290,
          1008,
          1202,
          1223,
          1126,
          1059,
          1064,
          1069,
          1170,
          1174,
          1092,
          1047,
          1158,
          1050,
          1038,
          1035,
          1173,
          1128,
          1286,
          1295,
          961,
          1018,
          992,
          995,
          1031,
          1193,
          1074,
          1076,
          1066,
          1072,
          1256,
          981,
          1019,
          1122,
          1019,
          984,
          1147,
          1148,
          965,
          1206,
          1263,
          924,
          1060,
          1055,
          1117,
          1156,
          1019,
          1063,
          1139,
          1165,
          979,
          1054,
          1301,
          951,
          1100,
          1006,
          1163,
          1013,
          1030,
          985,
          1152,
          1071,
          1127,
          1034,
          1119,
          1200,
          1043,
          1097,
          1303,
          1073,
          959,
          1077,
          1122,
          1008,
          1213,
          1250,
          939,
          1257,
          1078,
          991,
          1025,
          1146,
          1124,
          1094,
          988,
          1282,
          1192,
          1177,
          994,
          1076,
          1197,
          1294,
          1074,
          964,
          1060,
          1228,
          985,
          1246,
          1044,
          942,
          1036,
          1104,
          1089,
          1060,
          1138,
          1217,
          1096,
          1041,
          1283,
          1028,
          1049,
          1136,
          992,
          1182,
          1273,
          1249,
          987,
          964,
          1133,
          990,
          1151,
          1130,
          1133,
          971,
          975,
          1053,
          1196,
          1259,
          1143,
          1033,
          1084,
          1330,
          1153,
          996,
          1120,
          1287,
          1135,
          1077,
          1075,
          994,
          989,
          993,
          988,
          984,
          1106,
          1239,
          1218,
          955,
          1072,
          1268,
          995,
          1055,
          1045,
          1136,
          1244,
          985,
          1027,
          1251,
          1074,
          969
        ],
        "WindowCenter": [
          493.0,
          491.0,
          490.0,
          492.0,
          493.0,
          491.0,
          494.0,
          493.0,
          493.0,
          493.0,
          493.0,
          492.0,
          494.0,
          493.0,
          493.0,
          491.0,
          493.0,
          493.0,
          493.0,
          492.0,
          493.0,
          493.0,
          494.0,
          494.0,
          491.0,
          491.0,
          490.0,
          491.0,
          492.0,
          493.0,
          493.0,
          493.0,
          492.0,
          493.0,
          495.0,
          492.0,
          492.0,
          494.0,
          492.0,
          491.0,
          493.0,
          493.0,
          492.0,
          494.0,
          494.0,
          490.0,
          492.0,
          491.0,
          493.0,
          492.0,
          491.0,
          492.0,
          492.0,
          493.0,
          491.0,
          492.0,
          493.0,
          490.0,
          493.0,
          491.0,
          493.0,
          491.0,
          491.0,
          490.0,
          494.0,
          493.0,
          493.0,
          492.0,
          492.0,
          493.0,
          492.0,
          491.0,
          493.0,
          491.0,
          490.0,
          493.0,
          492.0,
          492.0,
          494.0,
          494.0,
          490.0,
          494.0,
          492.0,
          491.0,
          492.0,
          493.0,
          491.0,
          491.0,
          492.0,
          494.0,
          492.0,
          492.0,
          491.0,
          492.0,
          492.0,
          492.0,
          490.0,
          490.0,
          492.0,
          493.0,
          490.0,
          493.0,
          490.0,
          490.0,
          491.0,
          491.0,
          492.0,
          492.0,
          493.0,
          494.0,
          492.0,
          491.0,
          494.0,
          491.0,
          489.0,
          490.0,
          492.0,
          494.0,
          494.0,
          493.0,
          489.0,
          489.0,
          493.0,
          492.0,
          492.0,
          491.0,
          492.0,
          488.0,
          491.0,
          492.0,
          493.0,
          494.0,
          492.0,
          490.0,
          491.0,
          493.0,
          492.0,
          491.0,
          493.0,
          494.0,
          491.0,
          491.0,
          491.0,
          490.0,
          490.0,
          492.0,
          491.0,
          491.0,
