{
  "aor": 0.0011829268292682926,
  "aqi": 0.015843018841463413,
  "bids_meta": {
    "AcquisitionMatrixPE": 64,
    "AcquisitionNumber": 1,
    "AcquisitionTime": "18:23:55.990000",
    "BandwidthPerPixelPhaseEncode": 26.483,
    "BaseResolution": 64,
    "BodyPartExamined": "HEAD",
    "CogAtlasID": "TODO",
    "ConversionSoftware": "dcm2niix",
    "ConversionSoftwareVersion": "v1.0.20171017 GCC6.3.0",
    "DerivedVendorReportedEchoSpacing": 0.000590001,
    "DeviceSerialNumber": "35177",
    "DwellTime": 4.1e-06,
    "EchoTime": 0.027,
    "EffectiveEchoSpacing": 0.000590001,
    "FlipAngle": 90,
    "ImageOrientationPatientDICOM": [
      0.997695,
      -0.060719,
      0.0302932,
      0.063934,
      0.990732,
      -0.119843
    ],
    "ImageType": [
      "ORIGINAL",
      "PRIMARY",
      "M",
      "ND",
      "NORM",
      "MOSAIC"
    ],
    "InPlanePhaseEncodingDirectionDICOM": "COL",
    "InstitutionAddress": "Scott_Ave._4525_St._Louis_MO_US_63110",
    "InstitutionName": "Washington_University",
    "InstitutionalDepartmentName": "Department",
    "MRAcquisitionType": "2D",
    "MagneticFieldStrength": 3,
    "Manufacturer": "Siemens",
    "ManufacturersModelName": "TrioTim",
    "Modality": "MR",
    "PartialFourier": 1,
    "PatientPosition": "HFS",
    "PercentPhaseFOV": 100,
    "PhaseEncodingDirection": "j-",
    "PhaseEncodingSteps": 64,
    "PhaseResolution": 1,
    "PixelBandwidth": 1905,
    "ProcedureStepDescription": "head_GREENE",
    "ProtocolName": "ep2d_bold_feedback_movie_1A",
    "PulseSequenceDetails": "%SiemensSeq%_ep2d_bold",
    "ReceiveCoilName": "HeadMatrix",
    "ReconMatrixPE": 64,
    "RepetitionTime": 2.5,
    "SAR": 0.207246,
    "ScanOptions": "FS",
    "ScanningSequence": "EP",
    "SequenceName": "_epfid2d1_64",
    "SequenceVariant": "SK",
    "SeriesDescription": "ep2d_bold_feedback_movie_1A",
    "SeriesNumber": 8,
    "ShimSetting": [
      -204,
      -19532,
      8022,
      129,
      150,
      -454,
      -4,
      -77
    ],
    "SliceThickness": 4,
    "SliceTiming": [
      1.255,
      0,
      1.335,
      0.08,
      1.4125,
      0.1575,
      1.49,
      0.235,
      1.57,
      0.315,
      1.6475,
      0.3925,
      1.725,
      0.47,
      1.805,
      0.55,
      1.8825,
      0.6275,
      1.9625,
      0.7075,
      2.04,
      0.785,
      2.1175,
      0.8625,
      2.1975,
      0.9425,
      2.275,
      1.02,
      2.3525,
      1.0975,
      2.4325,
      1.1775
    ],
    "SoftwareVersions": "syngo_MR_B17",
    "SpacingBetweenSlices": 4,
    "StationName": "MRC35177",
    "TaskName": "restmoviefixed",
    "TotalReadoutTime": 0.0371701,
    "TxRefAmp": 322.616,
    "dataset": "ds000256",
    "dcmmeta_affine": [
      [
        -3.9907803535461426,
        0.25573617219924927,
        0.0909426361322403,
        123.0160903930664
      ],
      [
        0.24287596344947815,
        3.962928295135498,
        -0.486014723777771,
        -127.98190307617188
      ],
      [
        0.12117267400026321,
        0.4793725907802582,
        3.9693222045898438,
        -75.53914642333984
      ],
      [
        0.0,
        0.0,
        0.0,
        1.0
      ]
    ],
    "dcmmeta_reorient_transform": [
      [
        0.0,
        -1.0,
        0.0,
        63.0
      ],
      [
        1.0,
        0.0,
        0.0,
        0.0
      ],
      [
        0.0,
        0.0,
        1.0,
        0.0
      ],
      [
        0.0,
        0.0,
        0.0,
        1.0
      ]
    ],
    "dcmmeta_shape": [
      64,
      64,
      32,
      164
    ],
    "dcmmeta_slice_dim": 2,
    "dcmmeta_version": 0.6,
    "global": {
      "const": {
        "AccessionNumber": ".",
        "AcquisitionMatrix": [
          64,
          0,
          0,
          64
        ],
        "AngioFlag": "N",
        "BitsAllocated": 16,
        "BitsStored": 12,
        "BodyPartExamined": "HEAD",
        "Columns": 384,
        "DeidentificationMethodCodeSequence": [
          {
            "CodeMeaning": "XNAT Edit Script",
            "CodeValue": "625500",
            "CodingSchemeDesignator": "XNAT",
            "CodingSchemeVersion": "0.1"
          }
        ],
        "EchoNumbers": 1,
        "EchoTime": 27.0,
        "EchoTrainLength": 1,
        "FlipAngle": 90.0,
        "HighBit": 11,
        "ImageOrientationPatient": [
          0.99769510776383,
          -0.060718991022,
          0.03029316875786,
          0.06393404209433,
          0.99073208232188,
          -0.1198431446501
        ],
        "ImagePositionPatient": [
          -818.57012852211,
          -716.89095949855,
          11.973310318257
        ],
        "ImageType": [
          "ORIGINAL",
          "PRIMARY",
          "M",
          "ND",
          "NORM",
          "MOSAIC"
        ],
        "ImagedNucleus": "1H",
        "ImagingFrequency": 123.255836,
        "InPlanePhaseEncodingDirection": "COL",
        "MRAcquisitionType": "2D",
        "MagneticFieldStrength": 3.0,
        "Manufacturer": "SIEMENS",
        "ManufacturerModelName": "TrioTim",
        "Modality": "MR",
        "NumberOfAverages": 1.0,
        "NumberOfPhaseEncodingSteps": 64,
        "PercentPhaseFieldOfView": 100.0,
        "PercentSampling": 100.0,
        "PerformedProcedureStepStartTime": "180037.281000",
        "PhotometricInterpretation": "MONOCHROME2",
        "PixelBandwidth": 1905.0,
        "PixelRepresentation": 0,
        "PixelSpacing": [
          4.0,
          4.0
        ],
        "PositionReferenceIndicator": "",
        "ProtocolName": "ep2d_bold_feedback_movie_1A",
        "RepetitionTime": 2500.0,
        "Rows": 384,
        "SAR": 0.20724594892323,
        "SamplesPerPixel": 1,
        "ScanOptions": "FS",
        "ScanningSequence": "EP",
        "SequenceName": "*epfid2d1_64",
        "SequenceVariant": "SK",
        "SeriesDescription": "ep2d_bold_feedback_movie_1A",
        "SeriesNumber": 8,
        "SeriesTime": "182357.625000",
        "SliceLocation": -56.612679146107,
        "SliceThickness": 4.0,
        "SmallestImagePixelValue": 0,
        "SoftwareVersions": "syngo MR B17",
        "SpacingBetweenSlices": 3.9999999528551,
        "SpecificCharacterSet": "ISO_IR 100",
        "StudyID": "1",
        "StudyTime": "180037.218000",
        "TransmitCoilName": "Body",
        "VariableFlipAngleFlag": "N",
        "WindowCenterWidthExplanation": "Algo1",
        "dBdt": 0.0
      },
      "slices": {}
    },
    "modality": "bold",
    "subject_id": "CTS213",
    "task_id": "restmoviefixed",
    "time": {
      "samples": {
        "AcquisitionNumber": [
          1,
          2,
          3,
          4,
          5,
          6,
          7,
          8,
          9,
          10,
          11,
          12,
          13,
          14,
          15,
          16,
          17,
          18,
          19,
          20,
          21,
          22,
          23,
          24,
          25,
          26,
          27,
          28,
          29,
          30,
          31,
          32,
          33,
          34,
          35,
          36,
          37,
          38,
          39,
          40,
          41,
          42,
          43,
          44,
          45,
          46,
          47,
          48,
          49,
          50,
          51,
          52,
          53,
          54,
          55,
          56,
          57,
          58,
          59,
          60,
          61,
          62,
          63,
          64,
          65,
          66,
          67,
          68,
          69,
          70,
          71,
          72,
          73,
          74,
          75,
          76,
          77,
          78,
          79,
          80,
          81,
          82,
          83,
          84,
          85,
          86,
          87,
          88,
          89,
          90,
          91,
          92,
          93,
          94,
          95,
          96,
          97,
          98,
          99,
          100,
          101,
          102,
          103,
          104,
          105,
          106,
          107,
          108,
          109,
          110,
          111,
          112,
          113,
          114,
          115,
          116,
          117,
          118,
          119,
          120,
          121,
          122,
          123,
          124,
          125,
          126,
          127,
          128,
          129,
          130,
          131,
          132,
          133,
          134,
          135,
          136,
          137,
          138,
          139,
          140,
          141,
          142,
          143,
          144,
          145,
          146,
          147,
          148,
          149,
          150,
          151,
          152,
          153,
          154,
          155,
          156,
          157,
          158,
          159,
          160,
          161,
          162,
          163,
          164
        ],
        "AcquisitionTime": [
          "182355.990000",
          "182358.500000",
          "182401.010000",
          "182403.520000",
          "182406.030000",
          "182408.540000",
          "182411.050000",
          "182413.560000",
          "182416.070000",
          "182418.580000",
          "182421.090000",
          "182423.600000",
          "182426.110000",
          "182428.620000",
          "182431.130000",
          "182433.640000",
          "182436.150000",
          "182438.660000",
          "182441.170000",
          "182443.680000",
          "182446.192500",
          "182448.702500",
          "182451.212500",
          "182453.722500",
          "182456.232500",
          "182458.742500",
          "182501.252500",
          "182503.762500",
          "182506.272500",
          "182508.782500",
          "182511.292500",
          "182513.802500",
          "182516.312500",
          "182518.822500",
          "182521.332500",
          "182523.842500",
          "182526.352500",
          "182528.862500",
          "182531.372500",
          "182533.882500",
          "182536.392500",
          "182538.902500",
          "182541.412500",
          "182543.922500",
          "182546.432500",
          "182548.942500",
          "182551.452500",
          "182553.962500",
          "182556.472500",
          "182558.982500",
          "182601.492500",
          "182604.002500",
          "182606.512500",
          "182609.022500",
          "182611.532500",
          "182614.042500",
          "182616.552500",
          "182619.062500",
          "182621.572500",
          "182624.082500",
          "182626.592500",
          "182629.102500",
          "182631.612500",
          "182634.122500",
          "182636.632500",
          "182639.142500",
          "182641.652500",
          "182644.162500",
          "182646.672500",
          "182649.182500",
          "182651.692500",
          "182654.202500",
          "182656.712500",
          "182659.222500",
          "182701.732500",
          "182704.242500",
          "182706.752500",
          "182709.262500",
          "182711.772500",
          "182714.282500",
          "182716.792500",
          "182719.302500",
          "182721.815000",
          "182724.325000",
          "182726.835000",
          "182729.345000",
          "182731.855000",
          "182734.365000",
          "182736.875000",
          "182739.385000",
          "182741.895000",
          "182744.405000",
          "182746.915000",
          "182749.425000",
          "182751.935000",
          "182754.445000",
          "182756.955000",
          "182759.465000",
          "182801.975000",
          "182804.485000",
          "182806.995000",
          "182809.505000",
          "182812.015000",
          "182814.525000",
          "182817.035000",
          "182819.545000",
          "182822.055000",
          "182824.565000",
          "182827.075000",
          "182829.585000",
          "182832.095000",
          "182834.605000",
          "182837.115000",
          "182839.625000",
          "182842.135000",
          "182844.645000",
          "182847.155000",
          "182849.665000",
          "182852.175000",
          "182854.685000",
          "182857.195000",
          "182859.705000",
          "182902.215000",
          "182904.725000",
          "182907.235000",
          "182909.745000",
          "182912.255000",
          "182914.765000",
          "182917.275000",
          "182919.785000",
          "182922.295000",
          "182924.805000",
          "182927.315000",
          "182929.825000",
          "182932.335000",
          "182934.845000",
          "182937.355000",
          "182939.865000",
          "182942.375000",
          "182944.885000",
          "182947.395000",
          "182949.905000",
          "182952.415000",
          "182954.925000",
          "182957.437500",
          "182959.947500",
          "183002.457500",
          "183004.967500",
          "183007.477500",
          "183009.987500",
          "183012.497500",
          "183015.007500",
          "183017.517500",
          "183020.027500",
          "183022.537500",
          "183025.047500",
          "183027.557500",
          "183030.067500",
          "183032.577500",
          "183035.087500",
          "183037.597500",
          "183040.107500",
          "183042.617500",
          "183045.127500"
        ],
        "ContentTime": [
          "182357.625000",
          "182400.125000",
          "182402.625000",
          "182405.125000",
          "182407.625000",
          "182410.125000",
          "182412.625000",
          "182415.125000",
          "182417.625000",
          "182420.125000",
          "182422.625000",
          "182425.125000",
          "182427.625000",
          "182430.125000",
          "182432.625000",
          "182435.125000",
          "182437.625000",
          "182440.125000",
          "182442.625000",
          "182445.125000",
          "182447.625000",
          "182450.125000",
          "182452.625000",
          "182455.125000",
          "182457.625000",
          "182500.125000",
          "182502.625000",
          "182505.125000",
          "182507.625000",
          "182510.125000",
          "182512.625000",
          "182515.125000",
          "182517.625000",
          "182520.125000",
          "182522.625000",
          "182525.125000",
          "182527.625000",
          "182530.125000",
          "182532.625000",
          "182535.125000",
          "182537.625000",
          "182540.125000",
          "182542.625000",
          "182545.125000",
          "182547.625000",
          "182550.125000",
          "182552.625000",
          "182555.125000",
          "182557.640000",
          "182600.125000",
          "182602.625000",
          "182605.125000",
          "182607.625000",
          "182610.125000",
          "182612.625000",
          "182615.125000",
          "182617.625000",
          "182620.125000",
          "182622.625000",
          "182625.125000",
          "182627.625000",
          "182630.125000",
          "182632.625000",
          "182635.125000",
          "182637.625000",
          "182640.125000",
          "182642.625000",
          "182645.125000",
          "182647.625000",
          "182650.125000",
          "182652.625000",
          "182655.125000",
          "182657.625000",
          "182700.125000",
          "182702.625000",
          "182705.125000",
          "182707.625000",
          "182710.125000",
          "182712.625000",
          "182715.125000",
          "182717.625000",
          "182720.125000",
          "182722.625000",
          "182725.125000",
          "182727.625000",
          "182730.125000",
          "182732.625000",
          "182735.125000",
          "182737.625000",
          "182740.125000",
          "182742.625000",
          "182745.125000",
          "182747.625000",
          "182750.125000",
          "182752.625000",
          "182755.125000",
          "182757.625000",
          "182800.125000",
          "182802.625000",
          "182805.125000",
          "182807.625000",
          "182810.125000",
          "182812.625000",
          "182815.125000",
          "182817.625000",
          "182820.125000",
          "182822.625000",
          "182825.125000",
          "182827.625000",
          "182830.125000",
          "182832.625000",
          "182835.125000",
          "182837.625000",
          "182840.125000",
          "182842.625000",
          "182845.125000",
          "182847.625000",
          "182850.125000",
          "182852.625000",
          "182855.125000",
          "182857.625000",
          "182900.125000",
          "182902.625000",
          "182905.125000",
          "182907.625000",
          "182910.125000",
          "182912.625000",
          "182915.125000",
          "182917.625000",
          "182920.125000",
          "182922.625000",
          "182925.125000",
          "182927.625000",
          "182930.125000",
          "182932.625000",
          "182935.125000",
          "182937.625000",
          "182940.125000",
          "182942.625000",
          "182945.125000",
          "182947.625000",
          "182950.125000",
          "182952.625000",
          "182955.125000",
          "182957.625000",
          "183000.125000",
          "183002.625000",
          "183005.125000",
          "183007.625000",
          "183010.125000",
          "183012.625000",
          "183015.125000",
          "183017.625000",
          "183020.125000",
          "183022.625000",
          "183025.125000",
          "183027.625000",
          "183030.125000",
          "183032.625000",
          "183035.125000",
          "183037.625000",
          "183040.125000",
          "183042.625000",
          "183044.921000"
        ],
        "InstanceCreationTime": [
          "182357.625000",
          "182400.125000",
          "182402.625000",
          "182405.125000",
          "182407.625000",
          "182410.125000",
          "182412.625000",
          "182415.125000",
          "182417.625000",
          "182420.125000",
          "182422.625000",
          "182425.125000",
          "182427.625000",
          "182430.125000",
          "182432.625000",
          "182435.125000",
          "182437.625000",
          "182440.125000",
          "182442.625000",
          "182445.125000",
          "182447.625000",
          "182450.125000",
          "182452.625000",
          "182455.125000",
          "182457.625000",
          "182500.125000",
          "182502.625000",
          "182505.125000",
          "182507.625000",
          "182510.125000",
          "182512.625000",
          "182515.125000",
          "182517.625000",
          "182520.125000",
          "182522.625000",
          "182525.125000",
          "182527.625000",
          "182530.125000",
          "182532.625000",
          "182535.125000",
          "182537.625000",
          "182540.125000",
          "182542.625000",
          "182545.125000",
          "182547.625000",
          "182550.125000",
          "182552.625000",
          "182555.125000",
          "182557.640000",
          "182600.125000",
          "182602.625000",
          "182605.125000",
          "182607.625000",
          "182610.125000",
          "182612.625000",
          "182615.125000",
          "182617.625000",
          "182620.125000",
          "182622.625000",
          "182625.125000",
          "182627.625000",
          "182630.125000",
          "182632.625000",
          "182635.125000",
          "182637.625000",
          "182640.125000",
          "182642.625000",
          "182645.125000",
          "182647.625000",
          "182650.125000",
          "182652.625000",
          "182655.125000",
          "182657.625000",
          "182700.125000",
          "182702.625000",
          "182705.125000",
          "182707.625000",
          "182710.125000",
          "182712.625000",
          "182715.125000",
          "182717.625000",
          "182720.125000",
          "182722.625000",
          "182725.125000",
          "182727.625000",
          "182730.125000",
          "182732.625000",
          "182735.125000",
          "182737.625000",
          "182740.125000",
          "182742.625000",
          "182745.125000",
          "182747.625000",
          "182750.125000",
          "182752.625000",
          "182755.125000",
          "182757.625000",
          "182800.125000",
          "182802.625000",
          "182805.125000",
          "182807.625000",
          "182810.125000",
          "182812.625000",
          "182815.125000",
          "182817.625000",
          "182820.125000",
          "182822.625000",
          "182825.125000",
          "182827.625000",
          "182830.125000",
          "182832.625000",
          "182835.125000",
          "182837.625000",
          "182840.125000",
          "182842.625000",
          "182845.125000",
          "182847.625000",
          "182850.125000",
          "182852.625000",
          "182855.125000",
          "182857.625000",
          "182900.125000",
          "182902.625000",
          "182905.125000",
          "182907.625000",
          "182910.125000",
          "182912.625000",
          "182915.125000",
          "182917.625000",
          "182920.125000",
          "182922.625000",
          "182925.125000",
          "182927.625000",
          "182930.125000",
          "182932.625000",
          "182935.125000",
          "182937.625000",
          "182940.125000",
          "182942.625000",
          "182945.125000",
          "182947.625000",
          "182950.125000",
          "182952.625000",
          "182955.125000",
          "182957.625000",
          "183000.125000",
          "183002.625000",
          "183005.125000",
          "183007.625000",
          "183010.125000",
          "183012.625000",
          "183015.125000",
          "183017.625000",
          "183020.125000",
          "183022.625000",
          "183025.125000",
          "183027.625000",
          "183030.125000",
          "183032.625000",
          "183035.125000",
          "183037.625000",
          "183040.125000",
          "183042.625000",
          "183044.921000"
        ],
        "InstanceNumber": [
          1,
          2,
          3,
          4,
          5,
          6,
          7,
          8,
          9,
          10,
          11,
          12,
          13,
          14,
          15,
          16,
          17,
          18,
          19,
          20,
          21,
          22,
          23,
          24,
          25,
          26,
          27,
          28,
          29,
          30,
          31,
          32,
          33,
          34,
          35,
          36,
          37,
          38,
          39,
          40,
          41,
          42,
          43,
          44,
          45,
          46,
          47,
          48,
          49,
          50,
          51,
          52,
          53,
          54,
          55,
          56,
          57,
          58,
          59,
          60,
          61,
          62,
          63,
          64,
          65,
          66,
          67,
          68,
          69,
          70,
          71,
          72,
          73,
          74,
          75,
          76,
          77,
          78,
          79,
          80,
          81,
          82,
          83,
          84,
          85,
          86,
          87,
          88,
          89,
          90,
          91,
          92,
          93,
          94,
          95,
          96,
          97,
          98,
          99,
          100,
          101,
          102,
          103,
          104,
          105,
          106,
          107,
          108,
          109,
          110,
          111,
          112,
          113,
          114,
          115,
          116,
          117,
          118,
          119,
          120,
          121,
          122,
          123,
          124,
          125,
          126,
          127,
          128,
          129,
          130,
          131,
          132,
          133,
          134,
          135,
          136,
          137,
          138,
          139,
          140,
          141,
          142,
          143,
          144,
          145,
          146,
          147,
          148,
          149,
          150,
          151,
          152,
          153,
          154,
          155,
          156,
          157,
          158,
          159,
          160,
          161,
          162,
          163,
          164
        ],
        "LargestImagePixelValue": [
          1126,
          1368,
          1231,
          1474,
          1127,
          1177,
          1232,
          1273,
          1188,
          1238,
          1126,
          1063,
          1468,
          1081,
          1069,
          1078,
          1022,
          1384,
          1250,
          1238,
          1120,
          1230,
          1258,
          1306,
          1232,
          1062,
          1049,
          933,
          1416,
          1076,
          1069,
          1484,
          952,
          1084,
          1115,
          1268,
          1078,
          1256,
          1135,
          1538,
          1032,
          1155,
          1063,
          1279,
          1234,
          1079,
          1108,
          1224,
          1121,
          1097,
          1006,
          960,
          1250,
          1315,
          1243,
          907,
          1170,
          1378,
          989,
          1314,
          1075,
          1236,
          1070,
          959,
          1179,
          976,
          1297,
          1147,
          1098,
          1134,
          1075,
          1376,
          910,
          1223,
          1225,
          1060,
          1135,
          1228,
          989,
          1091,
          970,
          960,
          1120,
          1078,
          1185,
          1016,
          1115,
          1271,
          1097,
          1117,
          1242,
          1001,
          1207,
          1017,
          1185,
          1266,
          879,
          1042,
          1013,
          1332,
          1103,
          1045,
          1310,
          1339,
          1200,
          1164,
          1162,
          1117,
          1156,
          1007,
          1069,
          1200,
          1334,
          1113,
          1141,
          1108,
          1063,
          1260,
          992,
          1016,
          1233,
          1126,
          997,
          976,
          1304,
          922,
          1099,
          1083,
          903,
          1104,
          1249,
          985,
          906,
          1387,
          1111,
          1225,
          1106,
          1041,
          941,
          963,
          1177,
          1151,
          1293,
          952,
          1316,
          1383,
          1154,
          1187,
          1268,
          1202,
          1139,
          1094,
          1155,
          1007,
          1172,
          1073,
          1167,
          1218,
          991,
          1114,
          1121,
          1158,
          1177,
          988
        ],
        "WindowCenter": [
          493.0,
          493.0,
          492.0,
          492.0,
          490.0,
          492.0,
          493.0,
          493.0,
          492.0,
          493.0,
          491.0,
          489.0,
          494.0,
          491.0,
          490.0,
          491.0,
          491.0,
          494.0,
          493.0,
          492.0,
          492.0,
          493.0,
          493.0,
          493.0,
          493.0,
          491.0,
          490.0,
          489.0,
          494.0,
          491.0,
          491.0,
          494.0,
          489.0,
          492.0,
          491.0,
          491.0,
          491.0,
          492.0,
          491.0,
          491.0,
          490.0,
          491.0,
          491.0,
          492.0,
          490.0,
          490.0,
          490.0,
          490.0,
          489.0,
          489.0,
          488.0,
          489.0,
          492.0,
          492.0,
          491.0,
          489.0,
          492.0,
          493.0,
          490.0,
          493.0,
          491.0,
          493.0,
          490.0,
          489.0,
          490.0,
          488.0,
          492.0,
          491.0,
          490.0,
          491.0,
          489.0,
          490.0,
          487.0,
          491.0,
          489.0,
          490.0,
          489.0,
          490.0,
          488.0,
          489.0,
          488.0,
          489.0,
          490.0,
          489.0,
          491.0,
          490.0,
          490.0,
          491.0,
          490.0,
          489.0,
          491.0,
          489.0,
          491.0,
          489.0,
          491.0,
          489.0,
          487.0,
          490.0,
          489.0,
          491.0,
          489.0,
          489.0,
          492.0,
          492.0,
          490.0,
          490.0,
          489.0,
          489.0,
          490.0,
          490.0,
          489.0,
          490.0,
          491.0,
          490.0,
          490.0,
          490.0,
          489.0,
          491.0,
          490.0,
          490.0,
          491.0,
          490.0,
          488.0,
          488.0,
          491.0,
          487.0,
          490.0,
          488.0,
          487.0,
          490.0,
          491.0,
          487.0,
          489.0,
          492.0,
          490.0,
          491.0,
          489.0,
          488.0,
          487.0,
          487.0,
          490.0,
          490.0,
          490.0,
          489.0,
          493.0,
          491.0,
          489.0,
          490.0,
          489.0,
          489.0,
