{
  "aor": 0.0007633536585365855,
  "aqi": 0.004080506402439025,
  "bids_meta": {
    "AcquisitionMatrixPE": 64,
    "AcquisitionNumber": 1,
    "AcquisitionTime": "12:58:17.095000",
    "BandwidthPerPixelPhaseEncode": 26.483,
    "BaseResolution": 64,
    "BodyPartExamined": "HEAD",
    "CogAtlasID": "TODO",
    "ConversionSoftware": "dcm2niix",
    "ConversionSoftwareVersion": "v1.0.20171017 GCC6.3.0",
    "DerivedVendorReportedEchoSpacing": 0.000590001,
    "DeviceSerialNumber": "35177",
    "EchoTime": 0.027,
    "EffectiveEchoSpacing": 0.000590001,
    "FlipAngle": 90,
    "ImageOrientationPatientDICOM": [
      0.996142,
      0.0190981,
      0.0856549,
      -0.0197579,
      0.999781,
      0.00686144
    ],
    "ImageType": [
      "ORIGINAL",
      "PRIMARY",
      "M",
      "ND",
      "NORM",
      "MOSAIC"
    ],
    "InPlanePhaseEncodingDirectionDICOM": "COL",
    "InstitutionAddress": "Scott_Ave._4525_St._Louis_MO_US_63110",
    "InstitutionName": "Washington_University",
    "MRAcquisitionType": "2D",
    "MagneticFieldStrength": 3,
    "Manufacturer": "Siemens",
    "ManufacturersModelName": "TrioTim",
    "Modality": "MR",
    "PartialFourier": 1,
    "PatientPosition": "HFS",
    "PercentPhaseFOV": 100,
    "PhaseEncodingDirection": "j-",
    "PhaseEncodingSteps": 64,
    "PhaseResolution": 1,
    "PixelBandwidth": 1905,
    "ProcedureStepDescription": "head_GREENE",
    "ProtocolName": "ep2d_bold_nonad_movie_rest2B",
    "PulseSequenceDetails": "%SiemensSeq%_ep2d_bold",
    "ReceiveCoilName": "HeadMatrix",
    "ReconMatrixPE": 64,
    "RepetitionTime": 2.5,
    "SAR": 0.125626,
    "ScanOptions": "FS",
    "ScanningSequence": "EP",
    "SequenceName": "_epfid2d1_64",
    "SequenceVariant": "SK",
    "SeriesDescription": "ep2d_bold_nonad_movie_rest2B",
    "SeriesNumber": 7,
    "ShimSetting": [
      -200,
      -19505,
      7909,
      196,
      -100,
      -513,
      320,
      91
    ],
    "SliceThickness": 4,
    "SliceTiming": [
      1.255,
      0,
      1.3325,
      0.0775,
      1.41,
      0.1575,
      1.49,
      0.235,
      1.5675,
      0.3125,
      1.6475,
      0.3925,
      1.725,
      0.47,
      1.8025,
      0.5475,
      1.8825,
      0.6275,
      1.96,
      0.705,
      2.0375,
      0.7825,
      2.1175,
      0.8625,
      2.195,
      0.94,
      2.275,
      1.02,
      2.3525,
      1.0975,
      2.43,
      1.175
    ],
    "SoftwareVersions": "syngo_MR_B17",
    "SpacingBetweenSlices": 4,
    "StationName": "MRC35177",
    "TaskName": "restmoviefixed",
    "TotalReadoutTime": 0.0371701,
    "TxRefAmp": 324.939,
    "dataset": "ds000256",
    "dcmmeta_affine": [
      [
        -3.9845681190490723,
        -0.07903160154819489,
        0.3420203924179077,
        132.48117065429688
      ],
      [
        -0.07639239728450775,
        3.999124050140381,
        0.034109316766262054,
        -127.15543365478516
      ],
      [
        0.3426195979118347,
        -0.027445759624242783,
        3.9852046966552734,
        -63.549461364746094
      ],
      [
        0.0,
        0.0,
        0.0,
        1.0
      ]
    ],
    "dcmmeta_reorient_transform": [
      [
        0.0,
        -1.0,
        0.0,
        63.0
      ],
      [
        1.0,
        0.0,
        0.0,
        0.0
      ],
      [
        0.0,
        0.0,
        1.0,
        0.0
      ],
      [
        0.0,
        0.0,
        0.0,
        1.0
      ]
    ],
    "dcmmeta_shape": [
      64,
      64,
      32,
      164
    ],
    "dcmmeta_slice_dim": 2,
    "dcmmeta_version": 0.6,
    "global": {
      "const": {
        "AccessionNumber": ".",
        "AcquisitionMatrix": [
          64,
          0,
          0,
          64
        ],
        "AngioFlag": "N",
        "BitsAllocated": 16,
        "BitsStored": 12,
        "BodyPartExamined": "HEAD",
        "Columns": 384,
        "DeidentificationMethodCodeSequence": [
          {
            "CodeMeaning": "XNAT Edit Script",
            "CodeValue": "625500",
            "CodingSchemeDesignator": "XNAT",
            "CodingSchemeVersion": "0.1"
          }
        ],
        "EchoNumbers": 1,
        "EchoTime": 27.0,
        "EchoTrainLength": 1,
        "FlipAngle": 90.0,
        "HighBit": 11,
        "ImageOrientationPatient": [
          0.996142,
          0.0190981,
          0.0856549,
          -0.0197579,
          0.999781,
          0.00686144
        ],
        "ImagePositionPatient": [
          -752.388,
          -776.872,
          -124.489
        ],
        "ImageType": [
          "ORIGINAL",
          "PRIMARY",
          "M",
          "ND",
          "NORM",
          "MOSAIC"
        ],
        "ImagedNucleus": "1H",
        "ImagingFrequency": 123.256,
        "InPlanePhaseEncodingDirection": "COL",
        "MRAcquisitionType": "2D",
        "MagneticFieldStrength": 3.0,
        "Manufacturer": "SIEMENS",
        "ManufacturerModelName": "TrioTim",
        "Modality": "MR",
        "NumberOfAverages": 1.0,
        "NumberOfFrames": 1,
        "NumberOfPhaseEncodingSteps": 64,
        "PercentPhaseFieldOfView": 100.0,
        "PercentSampling": 100.0,
        "PerformedProcedureStepStartTime": "124343.234000",
        "PhotometricInterpretation": "MONOCHROME2",
        "PixelBandwidth": 1905.0,
        "PixelRepresentation": 0,
        "PixelSpacing": [
          4.0,
          4.0
        ],
        "ProtocolName": "ep2d_bold_nonad_movie_rest2B",
        "RepetitionTime": 2500.0,
        "Rows": 384,
        "SAR": 0.125626,
        "SamplesPerPixel": 1,
        "ScanOptions": "FS",
        "ScanningSequence": "EP",
        "SequenceName": "*epfid2d1_64",
        "SequenceVariant": "SK",
        "SeriesDescription": "ep2d_bold_nonad_movie_rest2B",
        "SeriesNumber": 7,
        "SeriesTime": "125819.296000",
        "SliceLocation": -53.0713,
        "SliceThickness": 4.0,
        "SoftwareVersions": "syngo MR B17",
        "SpacingBetweenSlices": 4.0,
        "SpecificCharacterSet": "ISO_IR 100",
        "StudyID": "2",
        "StudyTime": "124343.203000",
        "TransmitCoilName": "Body",
        "VariableFlipAngleFlag": "N",
        "dBdt": 0.0
      },
      "slices": {}
    },
    "modality": "bold",
    "subject_id": "CTS215",
    "task_id": "restmoviefixed",
    "time": {
      "samples": {
        "AcquisitionNumber": [
          1,
          2,
          3,
          4,
          5,
          6,
          7,
          8,
          9,
          10,
          11,
          12,
          13,
          14,
          15,
          16,
          17,
          18,
          19,
          20,
          21,
          22,
          23,
          24,
          25,
          26,
          27,
          28,
          29,
          30,
          31,
          32,
          33,
          34,
          35,
          36,
          37,
          38,
          39,
          40,
          41,
          42,
          43,
          44,
          45,
          46,
          47,
          48,
          49,
          50,
          51,
          52,
          53,
          54,
          55,
          56,
          57,
          58,
          59,
          60,
          61,
          62,
          63,
          64,
          65,
          66,
          67,
          68,
          69,
          70,
          71,
          72,
          73,
          74,
          75,
          76,
          77,
          78,
          79,
          80,
          81,
          82,
          83,
          84,
          85,
          86,
          87,
          88,
          89,
          90,
          91,
          92,
          93,
          94,
          95,
          96,
          97,
          98,
          99,
          100,
          101,
          102,
          103,
          104,
          105,
          106,
          107,
          108,
          109,
          110,
          111,
          112,
          113,
          114,
          115,
          116,
          117,
          118,
          119,
          120,
          121,
          122,
          123,
          124,
          125,
          126,
          127,
          128,
          129,
          130,
          131,
          132,
          133,
          134,
          135,
          136,
          137,
          138,
          139,
          140,
          141,
          142,
          143,
          144,
          145,
          146,
          147,
          148,
          149,
          150,
          151,
          152,
          153,
          154,
          155,
          156,
          157,
          158,
          159,
          160,
          161,
          162,
          163,
          164
        ],
        "AcquisitionTime": [
          "125817.095000",
          "125819.605000",
          "125822.115000",
          "125824.625000",
          "125827.135000",
          "125829.645000",
          "125832.155000",
          "125834.665000",
          "125837.175000",
          "125839.685000",
          "125842.195000",
          "125844.705000",
          "125847.215000",
          "125849.725000",
          "125852.235000",
          "125854.745000",
          "125857.255000",
          "125859.765000",
          "125902.275000",
          "125904.785000",
          "125907.295000",
          "125909.805000",
          "125912.315000",
          "125914.825000",
          "125917.335000",
          "125919.845000",
          "125922.355000",
          "125924.865000",
          "125927.375000",
          "125929.885000",
          "125932.395000",
          "125934.905000",
          "125937.415000",
          "125939.925000",
          "125942.435000",
          "125944.945000",
          "125947.455000",
          "125949.965000",
          "125952.475000",
          "125954.985000",
          "125957.495000",
          "130000.005000",
          "130002.515000",
          "130005.025000",
          "130007.535000",
          "130010.045000",
          "130012.555000",
          "130015.065000",
          "130017.575000",
          "130020.087500",
          "130022.597500",
          "130025.107500",
          "130027.617500",
          "130030.127500",
          "130032.637500",
          "130035.147500",
          "130037.657500",
          "130040.167500",
          "130042.677500",
          "130045.187500",
          "130047.697500",
          "130050.207500",
          "130052.717500",
          "130055.227500",
          "130057.737500",
          "130100.247500",
          "130102.757500",
          "130105.267500",
          "130107.777500",
          "130110.287500",
          "130112.797500",
          "130115.307500",
          "130117.817500",
          "130120.327500",
          "130122.837500",
          "130125.347500",
          "130127.857500",
          "130130.367500",
          "130132.877500",
          "130135.387500",
          "130137.897500",
          "130140.407500",
          "130142.917500",
          "130145.427500",
          "130147.937500",
          "130150.447500",
          "130152.957500",
          "130155.467500",
          "130157.977500",
          "130200.487500",
          "130202.997500",
          "130205.507500",
          "130208.017500",
          "130210.527500",
          "130213.037500",
          "130215.547500",
          "130218.057500",
          "130220.567500",
          "130223.077500",
          "130225.587500",
          "130228.097500",
          "130230.607500",
          "130233.117500",
          "130235.627500",
          "130238.137500",
          "130240.647500",
          "130243.157500",
          "130245.667500",
          "130248.177500",
          "130250.687500",
          "130253.197500",
          "130255.707500",
          "130258.220000",
          "130300.730000",
          "130303.240000",
          "130305.750000",
          "130308.260000",
          "130310.770000",
          "130313.280000",
          "130315.790000",
          "130318.300000",
          "130320.810000",
          "130323.320000",
          "130325.830000",
          "130328.340000",
          "130330.850000",
          "130333.360000",
          "130335.870000",
          "130338.380000",
          "130340.890000",
          "130343.400000",
          "130345.910000",
          "130348.420000",
          "130350.930000",
          "130353.440000",
          "130355.950000",
          "130358.460000",
          "130400.970000",
          "130403.480000",
          "130405.990000",
          "130408.500000",
          "130411.010000",
          "130413.520000",
          "130416.030000",
          "130418.540000",
          "130421.050000",
          "130423.560000",
          "130426.070000",
          "130428.580000",
          "130431.090000",
          "130433.600000",
          "130436.110000",
          "130438.620000",
          "130441.130000",
          "130443.640000",
          "130446.150000",
          "130448.660000",
          "130451.170000",
          "130453.680000",
          "130456.190000",
          "130458.700000",
          "130501.210000",
          "130503.720000",
          "130506.230000"
        ],
        "ContentTime": [
          "125819.296000",
          "125821.796000",
          "125824.296000",
          "125826.796000",
          "125829.296000",
          "125831.796000",
          "125834.296000",
          "125836.796000",
          "125839.296000",
          "125841.796000",
          "125844.296000",
          "125846.796000",
          "125849.296000",
          "125851.796000",
          "125854.296000",
          "125856.796000",
          "125859.296000",
          "125901.796000",
          "125904.296000",
          "125906.796000",
          "125909.296000",
          "125911.796000",
          "125914.296000",
          "125916.796000",
          "125919.296000",
          "125921.796000",
          "125924.296000",
          "125926.796000",
          "125929.296000",
          "125931.796000",
          "125934.296000",
          "125936.796000",
          "125939.296000",
          "125941.796000",
          "125944.296000",
          "125946.796000",
          "125949.296000",
          "125951.796000",
          "125954.296000",
          "125956.796000",
          "125959.296000",
          "130001.796000",
          "130004.296000",
          "130006.796000",
          "130009.296000",
          "130011.796000",
          "130014.296000",
          "130016.796000",
          "130019.296000",
          "130021.796000",
          "130024.296000",
          "130026.796000",
          "130029.296000",
          "130031.796000",
          "130034.296000",
          "130036.796000",
          "130039.296000",
          "130041.796000",
          "130044.296000",
          "130046.796000",
          "130049.296000",
          "130051.796000",
          "130054.296000",
          "130056.796000",
          "130059.296000",
          "130101.796000",
          "130104.296000",
          "130106.796000",
          "130109.296000",
          "130111.796000",
          "130114.296000",
          "130116.796000",
          "130119.296000",
          "130121.796000",
          "130124.296000",
          "130126.796000",
          "130129.296000",
          "130131.796000",
          "130134.296000",
          "130136.796000",
          "130139.296000",
          "130141.796000",
          "130144.296000",
          "130146.796000",
          "130149.296000",
          "130151.796000",
          "130154.296000",
          "130156.796000",
          "130159.296000",
          "130201.796000",
          "130204.296000",
          "130206.796000",
          "130209.296000",
          "130211.796000",
          "130214.296000",
          "130216.796000",
          "130219.296000",
          "130221.796000",
          "130224.296000",
          "130226.796000",
          "130229.296000",
          "130231.796000",
          "130234.296000",
          "130236.796000",
          "130239.296000",
          "130241.796000",
          "130244.296000",
          "130246.796000",
          "130249.296000",
          "130251.796000",
          "130254.296000",
          "130256.796000",
          "130259.296000",
          "130301.796000",
          "130304.296000",
          "130306.796000",
          "130309.296000",
          "130311.796000",
          "130314.296000",
          "130316.796000",
          "130319.296000",
          "130321.796000",
          "130324.296000",
          "130326.796000",
          "130329.296000",
          "130331.796000",
          "130334.296000",
          "130336.796000",
          "130339.296000",
          "130341.796000",
          "130344.296000",
          "130346.796000",
          "130349.296000",
          "130351.796000",
          "130354.296000",
          "130356.796000",
          "130359.296000",
          "130401.796000",
          "130404.296000",
          "130406.796000",
          "130409.296000",
          "130411.796000",
          "130414.296000",
          "130416.796000",
          "130419.296000",
          "130421.796000",
          "130424.296000",
          "130426.796000",
          "130429.296000",
          "130431.796000",
          "130434.296000",
          "130436.796000",
          "130439.296000",
          "130441.796000",
          "130444.296000",
          "130446.796000",
          "130449.296000",
          "130451.796000",
          "130454.296000",
          "130456.796000",
          "130459.296000",
          "130501.796000",
          "130504.296000",
          "130506.375000"
        ],
        "InstanceNumber": [
          1,
          2,
          3,
          4,
          5,
          6,
          7,
          8,
          9,
          10,
          11,
          12,
          13,
          14,
          15,
          16,
          17,
          18,
          19,
          20,
          21,
          22,
          23,
          24,
          25,
          26,
          27,
          28,
          29,
          30,
          31,
          32,
          33,
          34,
          35,
          36,
          37,
          38,
          39,
          40,
          41,
          42,
          43,
          44,
          45,
          46,
          47,
          48,
          49,
          50,
          51,
          52,
          53,
          54,
          55,
          56,
          57,
          58,
          59,
          60,
          61,
          62,
          63,
          64,
          65,
          66,
          67,
          68,
          69,
          70,
          71,
          72,
          73,
          74,
          75,
          76,
          77,
          78,
          79,
          80,
          81,
          82,
          83,
          84,
          85,
          86,
          87,
          88,
          89,
          90,
          91,
          92,
          93,
          94,
          95,
          96,
          97,
          98,
          99,
          100,
          101,
          102,
          103,
          104,
          105,
          106,
          107,
          108,
          109,
          110,
          111,
          112,
          113,
          114,
          115,
          116,
          117,
          118,
          119,
          120,
          121,
          122,
          123,
          124,
          125,
          126,
          127,
          128,
          129,
          130,
          131,
          132,
          133,
          134,
          135,
          136,
          137,
          138,
          139,
          140,
          141,
          142,
          143,
          144,
          145,
          146,
          147,
          148,
          149,
          150,
          151,
          152,
          153,
          154,
          155,
          156,
          157,
          158,
          159,
          160,
          161,
          162,
          163,
          164
        ],
        "WindowCenter": [
          633.0,
          635.0,
          632.0,
          633.0,
          632.0,
          634.0,
          629.0,
          635.0,
          631.0,
          631.0,
          632.0,
          632.0,
          633.0,
          636.0,
          630.0,
          631.0,
          632.0,
          631.0,
          635.0,
          632.0,
          632.0,
          631.0,
          632.0,
          632.0,
          631.0,
          631.0,
          632.0,
          632.0,
          634.0,
          635.0,
          633.0,
          631.0,
          632.0,
          637.0,
          632.0,
          632.0,
          632.0,
          634.0,
          632.0,
          631.0,
          633.0,
          630.0,
          630.0,
          630.0,
          631.0,
          635.0,
          631.0,
          632.0,
          636.0,
          631.0,
          630.0,
          630.0,
          630.0,
          630.0,
          630.0,
          630.0,
          630.0,
          630.0,
          630.0,
          634.0,
          634.0,
          631.0,
          632.0,
          637.0,
          632.0,
          632.0,
          632.0,
          631.0,
          633.0,
          631.0,
          630.0,
          631.0,
          630.0,
          634.0,
          631.0,
          632.0,
          632.0,
          630.0,
          630.0,
          630.0,
          629.0,
          631.0,
          637.0,
          631.0,
          633.0,
          633.0,
          632.0,
          632.0,
          630.0,
          631.0,
          636.0,
          632.0,
          632.0,
          636.0,
          636.0,
          635.0,
          631.0,
          631.0,
          630.0,
          630.0,
          629.0,
          629.0,
          635.0,
          630.0,
          630.0,
          630.0,
          631.0,
          631.0,
          630.0,
          630.0,
          631.0,
          630.0,
          629.0,
          630.0,
          629.0,
          628.0,
          630.0,
          634.0,
          635.0,
          636.0,
          631.0,
          631.0,
          631.0,
          634.0,
          631.0,
          634.0,
          632.0,
          630.0,
          634.0,
          633.0,
          630.0,
          636.0,
          634.0,
          634.0,
          629.0,
          630.0,
          630.0,
          634.0,
          631.0,
          632.0,
          630.0,
          630.0,
          631.0,
          632.0,
          632.0,
          630.0,
          631.0,
          630.0,
          631.0,
          630.0,
          632.0,
          634.0,
          631.0,
          630.0,
          630.0,
          634.0,
          634.0,
          631.0,
          630.0,
          630.0,
          630.0,
          634.0,
          631.0,
          634.0
        ],
        "WindowWidth": [
          1365.0,
          1370.0,
          1364.0,
          1364.0,
          1362.0,
          1366.0,
          1357.0,
          1369.0,
          1362.0,
          1361.0,
          1363.0,
          1364.0,
          1366.0,
          1372.0,
          1360.0,
          1361.0,
          1362.0,
          1360.0,
          1369.0,
          1362.0,
          1362.0,
          1361.0,
          1363.0,
          1363.0,
          1359.0,
          1359.0,
          1362.0,
          1364.0,
          1367.0,
          1370.0,
          1365.0,
          1361.0,
          1362.0,
          1373.0,
          1364.0,
          1362.0,
          1362.0,
          1367.0,
          1362.0,
          1360.0,
          1364.0,
          1357.0,
          1358.0,
          1357.0,
          1360.0,
          1369.0,
          1361.0,
          1363.0,
          1370.0,
          1359.0,
          1358.0,
          1358.0,
          1358.0,
          1358.0,
          1357.0,
          1359.0,
          1358.0,
          1359.0,
          1358.0,
          1366.0,
          1365.0,
          1360.0,
          1363.0,
          1374.0,
          1363.0,
          1363.0,
          1363.0,
          1360.0,
          1364.0,
          1359.0,
          1357.0,
          1360.0,
          1359.0,
          1367.0,
          1360.0,
          1362.0,
          1362.0,
          1358.0,
          1358.0,
          1358.0,
          1355.0,
          1360.0,
          1373.0,
          1362.0,
          1365.0,
          1364.0,
          1362.0,
          1362.0,
          1358.0,
          1360.0,
          1369.0,
          1362.0,
          1364.0,
          1370.0,
          1370.0,
          1369.0,
          1361.0,
          1360.0,
          1357.0,
          1358.0,
          1356.0,
          1356.0,
          1367.0,
          1359.0,
          1358.0,
          1359.0,
          1360.0,
          1360.0,
          1357.0,
          1358.0,
          1359.0,
          1358.0,
          1356.0,
          1357.0,
          1356.0,
          1353.0,
          1358.0,
          1366.0,
          1368.0,
          1369.0,
          1360.0,
          1359.0,
          1361.0,
          1367.0,
          1361.0,
          1366.0,
          1362.0,
          1359.0,
          1366.0,
          1364.0,
          1358.0,
          1370.0,
          1366.0,
          1366.0,
          1356.0,
          1358.0,
          1359.0,
          1366.0,
          1361.0,
          1362.0,
          1358.0,
          1358.0,
          1360.0,
          1362.0,
          1362.0,
          1359.0,
          1360.0,
          1358.0,
          1359.0,
          1359.0,
          1362.0,
          1366.0,
          1359.0,
          1358.0,
          1358.0,
          1367.0,
          1366.0,
          1359.0,
          1358.0,
          1359.0,
          1358.0,
          1366.0,
          1361.0,
          1365.0
        ]
      },
      "slices": {}
    }
  },
  "dummy_trs": 0,
  "dvars_nstd": 13.715861185889574,
  "dvars_std": 1.2492744016564419,
  "dvars_vstd": 0.9575312334969324,
  "efc": 0.4057839417563428,
  "fber": 47395.6015625,
  "fd_mean": 0.03989741938544793,
  "fd_num": 0,
  "fd_perc": 0.0,
  "fwhm_avg": 1.7226708333333332,
  "fwhm_x": 1.58506,
  "fwhm_y": 1.89719,
  "fwhm_z": 1.6857625,
  "gcor": 0.0317542,
  "gsr_x": -0.024681631475687027,
  "gsr_y": 0.009055842645466328,
  "provenance": {
    "md5sum": "ade59048c544b46fc828061269ce083a",
    "settings": {
      "fd_thres": 0.2,
      "testing": false
    },
    "software": "mriqc",
    "version": "22.0.0rc1",
    "webapi_port": null,
    "webapi_url": "https://mriqc.nimh.nih.gov/api/v1"
  },
  "size_t": 164,
  "size_x": 64,
  "size_y": 64,
  "size_z": 32,
  "snr": 7.83986790847801,
  "spacing_tr": 2.5,
  "spacing_x": 4.0,
  "spacing_y": 4.0,
  "spacing_z": 4.0,
  "summary_bg_k": 42.32887804748466,
  "summary_bg_mad": 2.883841844255232,
  "summary_bg_mean": 17.288101196289062,
  "summary_bg_median": 3.701219320297241,
  "summary_bg_n": 89074.0,
  "summary_bg_p05": 1.3536584377288818,
  "summary_bg_p95": 83.91706809997537,
  "summary_bg_stdv": 42.1900520324707,
  "summary_fg_k": 1.9633317810094733,
  "summary_fg_mad": 98.51622079212697,
  "summary_fg_mean": 819.2461547851562,
  "summary_fg_median": 816.9725341796875,
  "summary_fg_n": 15770.0,
  "summary_fg_p05": 660.21826171875,
  "summary_fg_p95": 980.456997680664,
  "summary_fg_stdv": 104.20413208007812,
  "tsnr": 114.41582707827911
}