{
  "aor": 0.000988109756097561,
  "aqi": 0.0030533475,
  "bids_meta": {
    "AcquisitionMatrixPE": 64,
    "AcquisitionNumber": 1,
    "AcquisitionTime": "13:07:0.197500",
    "BandwidthPerPixelPhaseEncode": 26.483,
    "BaseResolution": 64,
    "BodyPartExamined": "HEAD",
    "CogAtlasID": "TODO",
    "ConversionSoftware": "dcm2niix",
    "ConversionSoftwareVersion": "v1.0.20171017 GCC6.3.0",
    "DerivedVendorReportedEchoSpacing": 0.000590001,
    "DeviceSerialNumber": "35177",
    "EchoTime": 0.027,
    "EffectiveEchoSpacing": 0.000590001,
    "FlipAngle": 90,
    "ImageOrientationPatientDICOM": [
      0.996142,
      0.0190981,
      0.0856549,
      -0.0197579,
      0.999781,
      0.00686144
    ],
    "ImageType": [
      "ORIGINAL",
      "PRIMARY",
      "M",
      "ND",
      "NORM",
      "MOSAIC"
    ],
    "InPlanePhaseEncodingDirectionDICOM": "COL",
    "InstitutionAddress": "Scott_Ave._4525_St._Louis_MO_US_63110",
    "InstitutionName": "Washington_University",
    "MRAcquisitionType": "2D",
    "MagneticFieldStrength": 3,
    "Manufacturer": "Siemens",
    "ManufacturersModelName": "TrioTim",
    "Modality": "MR",
    "PartialFourier": 1,
    "PatientPosition": "HFS",
    "PercentPhaseFOV": 100,
    "PhaseEncodingDirection": "j-",
    "PhaseEncodingSteps": 64,
    "PhaseResolution": 1,
    "PixelBandwidth": 1905,
    "ProcedureStepDescription": "head_GREENE",
    "ProtocolName": "ep2d_bold_ad_movie_rest3C",
    "PulseSequenceDetails": "%SiemensSeq%_ep2d_bold",
    "ReceiveCoilName": "HeadMatrix",
    "ReconMatrixPE": 64,
    "RepetitionTime": 2.5,
    "SAR": 0.125626,
    "ScanOptions": "FS",
    "ScanningSequence": "EP",
    "SequenceName": "_epfid2d1_64",
    "SequenceVariant": "SK",
    "SeriesDescription": "ep2d_bold_ad_movie_rest3C",
    "SeriesNumber": 8,
    "ShimSetting": [
      -200,
      -19505,
      7909,
      196,
      -100,
      -513,
      320,
      91
    ],
    "SliceThickness": 4,
    "SliceTiming": [
      1.255,
      0,
      1.3325,
      0.0775,
      1.41,
      0.1575,
      1.49,
      0.235,
      1.5675,
      0.3125,
      1.6475,
      0.3925,
      1.725,
      0.47,
      1.8025,
      0.5475,
      1.8825,
      0.6275,
      1.96,
      0.705,
      2.0375,
      0.7825,
      2.1175,
      0.8625,
      2.195,
      0.94,
      2.275,
      1.02,
      2.3525,
      1.0975,
      2.43,
      1.175
    ],
    "SoftwareVersions": "syngo_MR_B17",
    "SpacingBetweenSlices": 4,
    "StationName": "MRC35177",
    "TaskName": "restmovieadaptive",
    "TotalReadoutTime": 0.0371701,
    "TxRefAmp": 324.939,
    "dataset": "ds000256",
    "dcmmeta_affine": [
      [
        -3.9845681190490723,
        -0.07903160154819489,
        0.3420203924179077,
        132.48117065429688
      ],
      [
        -0.07639239728450775,
        3.999124050140381,
        0.034109316766262054,
        -127.92643737792969
      ],
      [
        0.3426195979118347,
        -0.027445759624242783,
        3.9852046966552734,
        -55.83945846557617
      ],
      [
        0.0,
        0.0,
        0.0,
        1.0
      ]
    ],
    "dcmmeta_reorient_transform": [
      [
        0.0,
        -1.0,
        0.0,
        63.0
      ],
      [
        1.0,
        0.0,
        0.0,
        0.0
      ],
      [
        0.0,
        0.0,
        1.0,
        0.0
      ],
      [
        0.0,
        0.0,
        0.0,
        1.0
      ]
    ],
    "dcmmeta_shape": [
      64,
      64,
      32,
      164
    ],
    "dcmmeta_slice_dim": 2,
    "dcmmeta_version": 0.6,
    "global": {
      "const": {
        "AccessionNumber": ".",
        "AcquisitionMatrix": [
          64,
          0,
          0,
          64
        ],
        "AngioFlag": "N",
        "BitsAllocated": 16,
        "BitsStored": 12,
        "BodyPartExamined": "HEAD",
        "Columns": 384,
        "DeidentificationMethodCodeSequence": [
          {
            "CodeMeaning": "XNAT Edit Script",
            "CodeValue": "625500",
            "CodingSchemeDesignator": "XNAT",
            "CodingSchemeVersion": "0.1"
          }
        ],
        "EchoNumbers": 1,
        "EchoTime": 27.0,
        "EchoTrainLength": 1,
        "FlipAngle": 90.0,
        "HighBit": 11,
        "ImageOrientationPatient": [
          0.996142,
          0.0190981,
          0.0856549,
          -0.0197579,
          0.999781,
          0.00686144
        ],
        "ImagePositionPatient": [
          -752.388,
          -776.101,
          -116.779
        ],
        "ImageType": [
          "ORIGINAL",
          "PRIMARY",
          "M",
          "ND",
          "NORM",
          "MOSAIC"
        ],
        "ImagedNucleus": "1H",
        "ImagingFrequency": 123.256,
        "InPlanePhaseEncodingDirection": "COL",
        "MRAcquisitionType": "2D",
        "MagneticFieldStrength": 3.0,
        "Manufacturer": "SIEMENS",
        "ManufacturerModelName": "TrioTim",
        "Modality": "MR",
        "NumberOfAverages": 1.0,
        "NumberOfFrames": 1,
        "NumberOfPhaseEncodingSteps": 64,
        "PercentPhaseFieldOfView": 100.0,
        "PercentSampling": 100.0,
        "PerformedProcedureStepStartTime": "124343.234000",
        "PhotometricInterpretation": "MONOCHROME2",
        "PixelBandwidth": 1905.0,
        "PixelRepresentation": 0,
        "PixelSpacing": [
          4.0,
          4.0
        ],
        "ProtocolName": "ep2d_bold_ad_movie_rest3C",
        "RepetitionTime": 2500.0,
        "Rows": 384,
        "SAR": 0.125626,
        "SamplesPerPixel": 1,
        "ScanOptions": "FS",
        "ScanningSequence": "EP",
        "SequenceName": "*epfid2d1_64",
        "SequenceVariant": "SK",
        "SeriesDescription": "ep2d_bold_ad_movie_rest3C",
        "SeriesNumber": 8,
        "SeriesTime": "130702.015000",
        "SliceLocation": -45.3956,
        "SliceThickness": 4.0,
        "SoftwareVersions": "syngo MR B17",
        "SpacingBetweenSlices": 4.0,
        "SpecificCharacterSet": "ISO_IR 100",
        "StudyID": "2",
        "StudyTime": "124343.203000",
        "TransmitCoilName": "Body",
        "VariableFlipAngleFlag": "N",
        "dBdt": 0.0
      },
      "slices": {}
    },
    "modality": "bold",
    "subject_id": "CTS215",
    "task_id": "restmovieadaptive",
    "time": {
      "samples": {
        "AcquisitionNumber": [
          1,
          2,
          3,
          4,
          5,
          6,
          7,
          8,
          9,
          10,
          11,
          12,
          13,
          14,
          15,
          16,
          17,
          18,
          19,
          20,
          21,
          22,
          23,
          24,
          25,
          26,
          27,
          28,
          29,
          30,
          31,
          32,
          33,
          34,
          35,
          36,
          37,
          38,
          39,
          40,
          41,
          42,
          43,
          44,
          45,
          46,
          47,
          48,
          49,
          50,
          51,
          52,
          53,
          54,
          55,
          56,
          57,
          58,
          59,
          60,
          61,
          62,
          63,
          64,
          65,
          66,
          67,
          68,
          69,
          70,
          71,
          72,
          73,
          74,
          75,
          76,
          77,
          78,
          79,
          80,
          81,
          82,
          83,
          84,
          85,
          86,
          87,
          88,
          89,
          90,
          91,
          92,
          93,
          94,
          95,
          96,
          97,
          98,
          99,
          100,
          101,
          102,
          103,
          104,
          105,
          106,
          107,
          108,
          109,
          110,
          111,
          112,
          113,
          114,
          115,
          116,
          117,
          118,
          119,
          120,
          121,
          122,
          123,
          124,
          125,
          126,
          127,
          128,
          129,
          130,
          131,
          132,
          133,
          134,
          135,
          136,
          137,
          138,
          139,
          140,
          141,
          142,
          143,
          144,
          145,
          146,
          147,
          148,
          149,
          150,
          151,
          152,
          153,
          154,
          155,
          156,
          157,
          158,
          159,
          160,
          161,
          162,
          163,
          164
        ],
        "AcquisitionTime": [
          "130700.197500",
          "130702.707500",
          "130705.217500",
          "130707.727500",
          "130710.237500",
          "130712.747500",
          "130715.257500",
          "130717.767500",
          "130720.277500",
          "130722.787500",
          "130725.297500",
          "130727.807500",
          "130730.317500",
          "130732.827500",
          "130735.337500",
          "130737.847500",
          "130740.357500",
          "130742.867500",
          "130745.377500",
          "130747.887500",
          "130750.397500",
          "130752.907500",
          "130755.417500",
          "130757.927500",
          "130800.437500",
          "130802.947500",
          "130805.457500",
          "130807.967500",
          "130810.477500",
          "130812.987500",
          "130815.497500",
          "130818.007500",
          "130820.517500",
          "130823.027500",
          "130825.537500",
          "130828.047500",
          "130830.557500",
          "130833.067500",
          "130835.577500",
          "130838.087500",
          "130840.597500",
          "130843.107500",
          "130845.617500",
          "130848.127500",
          "130850.637500",
          "130853.147500",
          "130855.657500",
          "130858.167500",
          "130900.677500",
          "130903.187500",
          "130905.700000",
          "130908.210000",
          "130910.720000",
          "130913.230000",
          "130915.740000",
          "130918.250000",
          "130920.760000",
          "130923.270000",
          "130925.780000",
          "130928.290000",
          "130930.800000",
          "130933.310000",
          "130935.820000",
          "130938.330000",
          "130940.840000",
          "130943.350000",
          "130945.860000",
          "130948.370000",
          "130950.880000",
          "130953.390000",
          "130955.900000",
          "130958.410000",
          "131000.920000",
          "131003.430000",
          "131005.940000",
          "131008.450000",
          "131010.960000",
          "131013.470000",
          "131015.980000",
          "131018.490000",
          "131021.000000",
          "131023.510000",
          "131026.020000",
          "131028.530000",
          "131031.040000",
          "131033.550000",
          "131036.060000",
          "131038.570000",
          "131041.080000",
          "131043.590000",
          "131046.100000",
          "131048.610000",
          "131051.120000",
          "131053.630000",
          "131056.140000",
          "131058.650000",
          "131101.160000",
          "131103.670000",
          "131106.180000",
          "131108.690000",
          "131111.200000",
          "131113.710000",
          "131116.220000",
          "131118.730000",
          "131121.240000",
          "131123.750000",
          "131126.260000",
          "131128.770000",
          "131131.280000",
          "131133.790000",
          "131136.300000",
          "131138.810000",
          "131141.320000",
          "131143.832500",
          "131146.342500",
          "131148.852500",
          "131151.362500",
          "131153.872500",
          "131156.382500",
          "131158.892500",
          "131201.402500",
          "131203.912500",
          "131206.422500",
          "131208.932500",
          "131211.442500",
          "131213.952500",
          "131216.462500",
          "131218.972500",
          "131221.482500",
          "131223.992500",
          "131226.502500",
          "131229.012500",
          "131231.522500",
          "131234.032500",
          "131236.542500",
          "131239.052500",
          "131241.562500",
          "131244.072500",
          "131246.582500",
          "131249.092500",
          "131251.602500",
          "131254.112500",
          "131256.622500",
          "131259.132500",
          "131301.642500",
          "131304.152500",
          "131306.662500",
          "131309.172500",
          "131311.682500",
          "131314.192500",
          "131316.702500",
          "131319.212500",
          "131321.722500",
          "131324.232500",
          "131326.742500",
          "131329.252500",
          "131331.762500",
          "131334.272500",
          "131336.782500",
          "131339.292500",
          "131341.802500",
          "131344.312500",
          "131346.822500",
          "131349.332500"
        ],
        "ContentTime": [
          "130702.015000",
          "130704.500000",
          "130707.000000",
          "130709.500000",
          "130712.000000",
          "130714.500000",
          "130717.000000",
          "130719.500000",
          "130722.000000",
          "130724.500000",
          "130727.000000",
          "130729.515000",
          "130732.000000",
          "130734.500000",
          "130737.000000",
          "130739.500000",
          "130742.000000",
          "130744.500000",
          "130747.000000",
          "130749.500000",
          "130752.000000",
          "130754.500000",
          "130757.000000",
          "130759.500000",
          "130802.000000",
          "130804.500000",
          "130807.000000",
          "130809.500000",
          "130812.000000",
          "130814.500000",
          "130817.000000",
          "130819.500000",
          "130822.000000",
          "130824.500000",
          "130827.000000",
          "130829.500000",
          "130832.000000",
          "130834.500000",
          "130837.000000",
          "130839.500000",
          "130842.000000",
          "130844.500000",
          "130847.000000",
          "130849.500000",
          "130852.000000",
          "130854.500000",
          "130857.000000",
          "130859.500000",
          "130902.000000",
          "130904.500000",
          "130907.000000",
          "130909.500000",
          "130912.000000",
          "130914.500000",
          "130917.000000",
          "130919.500000",
          "130922.000000",
          "130924.500000",
          "130927.000000",
          "130929.500000",
          "130932.000000",
          "130934.500000",
          "130937.000000",
          "130939.500000",
          "130942.000000",
          "130944.500000",
          "130947.000000",
          "130949.500000",
          "130952.000000",
          "130954.500000",
          "130957.000000",
          "130959.500000",
          "131002.000000",
          "131004.500000",
          "131007.000000",
          "131009.500000",
          "131012.000000",
          "131014.500000",
          "131017.000000",
          "131019.500000",
          "131022.000000",
          "131024.500000",
          "131027.000000",
          "131029.500000",
          "131032.000000",
          "131034.500000",
          "131037.000000",
          "131039.500000",
          "131042.000000",
          "131044.500000",
          "131047.000000",
          "131049.500000",
          "131052.000000",
          "131054.500000",
          "131057.000000",
          "131059.500000",
          "131102.000000",
          "131104.500000",
          "131107.000000",
          "131109.500000",
          "131112.000000",
          "131114.500000",
          "131117.000000",
          "131119.500000",
          "131122.000000",
          "131124.500000",
          "131127.000000",
          "131129.500000",
          "131132.000000",
          "131134.500000",
          "131137.000000",
          "131139.500000",
          "131142.000000",
          "131144.500000",
          "131147.000000",
          "131149.500000",
          "131152.000000",
          "131154.500000",
          "131157.000000",
          "131159.500000",
          "131202.000000",
          "131204.500000",
          "131207.000000",
          "131209.500000",
          "131212.000000",
          "131214.500000",
          "131217.000000",
          "131219.500000",
          "131222.000000",
          "131224.500000",
          "131227.000000",
          "131229.500000",
          "131232.000000",
          "131234.500000",
          "131237.000000",
          "131239.500000",
          "131242.000000",
          "131244.500000",
          "131247.000000",
          "131249.500000",
          "131252.000000",
          "131254.500000",
          "131257.000000",
          "131259.500000",
          "131302.000000",
          "131304.500000",
          "131307.000000",
          "131309.500000",
          "131312.000000",
          "131314.500000",
          "131317.000000",
          "131319.500000",
          "131322.000000",
          "131324.500000",
          "131327.000000",
          "131329.500000",
          "131332.000000",
          "131334.500000",
          "131337.000000",
          "131339.500000",
          "131342.000000",
          "131344.500000",
          "131347.000000",
          "131349.375000"
        ],
        "InstanceNumber": [
          1,
          2,
          3,
          4,
          5,
          6,
          7,
          8,
          9,
          10,
          11,
          12,
          13,
          14,
          15,
          16,
          17,
          18,
          19,
          20,
          21,
          22,
          23,
          24,
          25,
          26,
          27,
          28,
          29,
          30,
          31,
          32,
          33,
          34,
          35,
          36,
          37,
          38,
          39,
          40,
          41,
          42,
          43,
          44,
          45,
          46,
          47,
          48,
          49,
          50,
          51,
          52,
          53,
          54,
          55,
          56,
          57,
          58,
          59,
          60,
          61,
          62,
          63,
          64,
          65,
          66,
          67,
          68,
          69,
          70,
          71,
          72,
          73,
          74,
          75,
          76,
          77,
          78,
          79,
          80,
          81,
          82,
          83,
          84,
          85,
          86,
          87,
          88,
          89,
          90,
          91,
          92,
          93,
          94,
          95,
          96,
          97,
          98,
          99,
          100,
          101,
          102,
          103,
          104,
          105,
          106,
          107,
          108,
          109,
          110,
          111,
          112,
          113,
          114,
          115,
          116,
          117,
          118,
          119,
          120,
          121,
          122,
          123,
          124,
          125,
          126,
          127,
          128,
          129,
          130,
          131,
          132,
          133,
          134,
          135,
          136,
          137,
          138,
          139,
          140,
          141,
          142,
          143,
          144,
          145,
          146,
          147,
          148,
          149,
          150,
          151,
          152,
          153,
          154,
          155,
          156,
          157,
          158,
          159,
          160,
          161,
          162,
          163,
          164
        ],
        "WindowCenter": [
          635.0,
          635.0,
          633.0,
          634.0,
          634.0,
          634.0,
          634.0,
          632.0,
          634.0,
          632.0,
          633.0,
          634.0,
          635.0,
          633.0,
          634.0,
          634.0,
          634.0,
          633.0,
          633.0,
          634.0,
          634.0,
          634.0,
          633.0,
          634.0,
          632.0,
          633.0,
          633.0,
          634.0,
          633.0,
          635.0,
          634.0,
          634.0,
          632.0,
          634.0,
          633.0,
          633.0,
          633.0,
          633.0,
          633.0,
          633.0,
          633.0,
          633.0,
          633.0,
          632.0,
          634.0,
          635.0,
          634.0,
          633.0,
          633.0,
          635.0,
          633.0,
          634.0,
          633.0,
          631.0,
          632.0,
          635.0,
          634.0,
          634.0,
          633.0,
          634.0,
          633.0,
          633.0,
          633.0,
          633.0,
          634.0,
          634.0,
          634.0,
          633.0,
          633.0,
          633.0,
          633.0,
          634.0,
          634.0,
          634.0,
          634.0,
          632.0,
          632.0,
          633.0,
          634.0,
          632.0,
          633.0,
          633.0,
          633.0,
          633.0,
          634.0,
          633.0,
          633.0,
          632.0,
          632.0,
          633.0,
          633.0,
          632.0,
          633.0,
          633.0,
          635.0,
          634.0,
          635.0,
          634.0,
          633.0,
          633.0,
          632.0,
          633.0,
          634.0,
          634.0,
          634.0,
          634.0,
          634.0,
          635.0,
          634.0,
          633.0,
          633.0,
          633.0,
          633.0,
          633.0,
          633.0,
          632.0,
          633.0,
          633.0,
          634.0,
          632.0,
          634.0,
          632.0,
          634.0,
          634.0,
          634.0,
          634.0,
          633.0,
          633.0,
          633.0,
          633.0,
          633.0,
          633.0,
          633.0,
          632.0,
          632.0,
          633.0,
          633.0,
          633.0,
          633.0,
          633.0,
          633.0,
          633.0,
          635.0,
          633.0,
          634.0,
          635.0,
          634.0,
          634.0,
          632.0,
          633.0,
          634.0,
          633.0,
          632.0,
          632.0,
          634.0,
          634.0,
          633.0,
          634.0,
          633.0,
          633.0,
          631.0,
          633.0,
          632.0,
          634.0
        ],
        "WindowWidth": [
          1370.0,
          1370.0,
          1365.0,
          1367.0,
          1367.0,
          1368.0,
          1367.0,
          1364.0,
          1368.0,
          1364.0,
          1364.0,
          1368.0,
          1369.0,
          1365.0,
          1367.0,
          1368.0,
          1367.0,
          1366.0,
          1366.0,
          1366.0,
          1368.0,
          1367.0,
          1366.0,
          1366.0,
          1363.0,
          1364.0,
          1366.0,
          1367.0,
          1365.0,
          1368.0,
          1366.0,
          1366.0,
          1364.0,
          1367.0,
          1365.0,
          1364.0,
          1364.0,
          1364.0,
          1365.0,
          1366.0,
          1364.0,
          1364.0,
          1364.0,
          1364.0,
          1367.0,
          1370.0,
          1367.0,
          1364.0,
          1365.0,
          1370.0,
          1366.0,
          1367.0,
          1366.0,
          1361.0,
          1362.0,
          1369.0,
          1367.0,
          1367.0,
          1366.0,
          1367.0,
          1365.0,
          1365.0,
          1366.0,
          1366.0,
          1367.0,
          1367.0,
          1368.0,
          1364.0,
          1364.0,
          1366.0,
          1365.0,
          1367.0,
          1368.0,
          1367.0,
          1368.0,
          1363.0,
          1362.0,
          1365.0,
          1366.0,
          1364.0,
          1365.0,
          1366.0,
          1366.0,
          1365.0,
          1368.0,
          1364.0,
          1364.0,
          1362.0,
          1363.0,
          1365.0,
          1365.0,
          1363.0,
          1366.0,
          1366.0,
          1368.0,
          1366.0,
          1369.0,
          1367.0,
          1364.0,
          1364.0,
          1362.0,
          1364.0,
          1366.0,
          1366.0,
          1368.0,
          1368.0,
          1366.0,
          1368.0,
          1367.0,
          1366.0,
          1365.0,
          1365.0,
          1364.0,
          1364.0,
          1364.0,
          1363.0,
          1364.0,
          1366.0,
          1366.0,
          1364.0,
          1367.0,
          1364.0,
          1367.0,
          1366.0,
          1367.0,
          1368.0,
          1364.0,
          1365.0,
          1365.0,
          1366.0,
          1364.0,
          1365.0,
          1365.0,
          1363.0,
          1363.0,
          1365.0,
          1364.0,
          1366.0,
          1364.0,
          1366.0,
          1365.0,
          1364.0,
          1369.0,
          1366.0,
          1367.0,
          1369.0,
          1367.0,
          1366.0,
          1363.0,
          1365.0,
          1366.0,
          1366.0,
          1362.0,
          1363.0,
          1366.0,
          1366.0,
          1366.0,
          1366.0,
          1365.0,
          1365.0,
          1360.0,
          1364.0,
          1362.0,
          1367.0
        ]
      },
      "slices": {}
    }
  },
  "dummy_trs": 0,
  "dvars_nstd": 12.487791670306752,
  "dvars_std": 1.2549173449079754,
  "dvars_vstd": 0.9826391123926379,
  "efc": 0.3984828148017945,
  "fber": 56868.42578125,
  "fd_mean": 0.03843052125312841,
  "fd_num": 0,
  "fd_perc": 0.0,
  "fwhm_avg": 1.7114175000000003,
  "fwhm_x": 1.565995,
  "fwhm_y": 1.8960175,
  "fwhm_z": 1.67224,
  "gcor": 0.0154507,
  "gsr_x": -0.02194952964782715,
  "gsr_y": 0.01180192083120346,
  "provenance": {
    "md5sum": "db5162dd6e0d6f0825345cb33be81c4e",
    "settings": {
      "fd_thres": 0.2,
      "testing": false
    },
    "software": "mriqc",
    "version": "22.0.0rc1",
    "webapi_port": null,
    "webapi_url": "https://mriqc.nimh.nih.gov/api/v1"
  },
  "size_t": 164,
  "size_x": 64,
  "size_y": 64,
  "size_z": 32,
  "snr": 7.862937208571833,
  "spacing_tr": 2.5,
  "spacing_x": 4.0,
  "spacing_y": 4.0,
  "spacing_z": 4.0,
  "summary_bg_k": 49.1797932475897,
  "summary_bg_mad": 2.3459466866724896,
  "summary_bg_mean": 15.958687782287598,
  "summary_bg_median": 3.3932924270629883,
  "summary_bg_n": 89366.0,
  "summary_bg_p05": 1.3841463327407837,
  "summary_bg_p95": 78.02285957336426,
  "summary_bg_stdv": 40.26626205444336,
  "summary_fg_k": 1.8220820569864546,
  "summary_fg_mad": 99.04052482374449,
  "summary_fg_mean": 819.4886474609375,
  "summary_fg_median": 817.0151977539062,
  "summary_fg_n": 15524.0,
  "summary_fg_p05": 660.3432434082032,
  "summary_fg_p95": 980.7682495117188,
  "summary_fg_stdv": 103.90377807617188,
  "tsnr": 133.10034260712564
}