{
  "aor": 0.0017122085889570552,
  "aqi": 0.003955544969325153,
  "bids_meta": {
    "AcquisitionMatrixPE": 64,
    "AcquisitionNumber": 1,
    "AcquisitionTime": "13:31:43.250000",
    "BandwidthPerPixelPhaseEncode": 26.483,
    "BaseResolution": 64,
    "BodyPartExamined": "HEAD",
    "CogAtlasID": "TODO",
    "ConversionSoftware": "dcm2niix",
    "ConversionSoftwareVersion": "v1.0.20171017 GCC6.3.0",
    "DerivedVendorReportedEchoSpacing": 0.000590001,
    "DeviceSerialNumber": "35177",
    "EchoTime": 0.027,
    "EffectiveEchoSpacing": 0.000590001,
    "FlipAngle": 90,
    "ImageOrientationPatientDICOM": [
      0.996142,
      0.0190981,
      0.0856549,
      -0.0197579,
      0.999781,
      0.00686144
    ],
    "ImageType": [
      "ORIGINAL",
      "PRIMARY",
      "M",
      "ND",
      "NORM",
      "MOSAIC"
    ],
    "InPlanePhaseEncodingDirectionDICOM": "COL",
    "InstitutionAddress": "Scott_Ave._4525_St._Louis_MO_US_63110",
    "InstitutionName": "Washington_University",
    "MRAcquisitionType": "2D",
    "MagneticFieldStrength": 3,
    "Manufacturer": "Siemens",
    "ManufacturersModelName": "TrioTim",
    "Modality": "MR",
    "PartialFourier": 1,
    "PatientPosition": "HFS",
    "PercentPhaseFOV": 100,
    "PhaseEncodingDirection": "j-",
    "PhaseEncodingSteps": 64,
    "PhaseResolution": 1,
    "PixelBandwidth": 1905,
    "ProcedureStepDescription": "head_GREENE",
    "ProtocolName": "ep2d_bold_rest1",
    "PulseSequenceDetails": "%SiemensSeq%_ep2d_bold",
    "ReceiveCoilName": "HeadMatrix",
    "ReconMatrixPE": 64,
    "RepetitionTime": 2.5,
    "SAR": 0.125626,
    "ScanOptions": "FS",
    "ScanningSequence": "EP",
    "SequenceName": "_epfid2d1_64",
    "SequenceVariant": "SK",
    "SeriesDescription": "ep2d_bold_rest1",
    "SeriesNumber": 11,
    "ShimSetting": [
      -200,
      -19505,
      7909,
      196,
      -100,
      -513,
      320,
      91
    ],
    "SliceThickness": 4,
    "SliceTiming": [
      1.255,
      0,
      1.3325,
      0.0775,
      1.41,
      0.1575,
      1.49,
      0.235,
      1.5675,
      0.3125,
      1.6475,
      0.3925,
      1.725,
      0.47,
      1.8025,
      0.5475,
      1.8825,
      0.6275,
      1.96,
      0.705,
      2.0375,
      0.785,
      2.1175,
      0.8625,
      2.195,
      0.94,
      2.275,
      1.02,
      2.3525,
      1.0975,
      2.43,
      1.175
    ],
    "SoftwareVersions": "syngo_MR_B17",
    "SpacingBetweenSlices": 4,
    "StationName": "MRC35177",
    "TaskName": "restfixationadaptive",
    "TotalReadoutTime": 0.0371701,
    "TxRefAmp": 324.939,
    "dataset": "ds000256",
    "dcmmeta_affine": [
      [
        -3.9845681190490723,
        -0.07903160154819489,
        0.3420203924179077,
        132.48117065429688
      ],
      [
        -0.07639239728450775,
        3.999124050140381,
        0.034109316766262054,
        -127.92643737792969
      ],
      [
        0.3426195979118347,
        -0.027445759624242783,
        3.9852046966552734,
        -61.23645782470703
      ],
      [
        0.0,
        0.0,
        0.0,
        1.0
      ]
    ],
    "dcmmeta_reorient_transform": [
      [
        0.0,
        -1.0,
        0.0,
        63.0
      ],
      [
        1.0,
        0.0,
        0.0,
        0.0
      ],
      [
        0.0,
        0.0,
        1.0,
        0.0
      ],
      [
        0.0,
        0.0,
        0.0,
        1.0
      ]
    ],
    "dcmmeta_shape": [
      64,
      64,
      32,
      164
    ],
    "dcmmeta_slice_dim": 2,
    "dcmmeta_version": 0.6,
    "global": {
      "const": {
        "AccessionNumber": ".",
        "AcquisitionMatrix": [
          64,
          0,
          0,
          64
        ],
        "AngioFlag": "N",
        "BitsAllocated": 16,
        "BitsStored": 12,
        "BodyPartExamined": "HEAD",
        "Columns": 384,
        "DeidentificationMethodCodeSequence": [
          {
            "CodeMeaning": "XNAT Edit Script",
            "CodeValue": "625500",
            "CodingSchemeDesignator": "XNAT",
            "CodingSchemeVersion": "0.1"
          }
        ],
        "EchoNumbers": 1,
        "EchoTime": 27.0,
        "EchoTrainLength": 1,
        "FlipAngle": 90.0,
        "HighBit": 11,
        "ImageOrientationPatient": [
          0.996142,
          0.0190981,
          0.0856549,
          -0.0197579,
          0.999781,
          0.00686144
        ],
        "ImagePositionPatient": [
          -752.388,
          -776.101,
          -122.176
        ],
        "ImageType": [
          "ORIGINAL",
          "PRIMARY",
          "M",
          "ND",
          "NORM",
          "MOSAIC"
        ],
        "ImagedNucleus": "1H",
        "ImagingFrequency": 123.256,
        "InPlanePhaseEncodingDirection": "COL",
        "MRAcquisitionType": "2D",
        "MagneticFieldStrength": 3.0,
        "Manufacturer": "SIEMENS",
        "ManufacturerModelName": "TrioTim",
        "Modality": "MR",
        "NumberOfAverages": 1.0,
        "NumberOfFrames": 1,
        "NumberOfPhaseEncodingSteps": 64,
        "PercentPhaseFieldOfView": 100.0,
        "PercentSampling": 100.0,
        "PerformedProcedureStepStartTime": "124343.234000",
        "PhotometricInterpretation": "MONOCHROME2",
        "PixelBandwidth": 1905.0,
        "PixelRepresentation": 0,
        "PixelSpacing": [
          4.0,
          4.0
        ],
        "ProtocolName": "ep2d_bold_rest1",
        "RepetitionTime": 2500.0,
        "Rows": 384,
        "SAR": 0.125626,
        "SamplesPerPixel": 1,
        "ScanOptions": "FS",
        "ScanningSequence": "EP",
        "SequenceName": "*epfid2d1_64",
        "SequenceVariant": "SK",
        "SeriesDescription": "ep2d_bold_rest1",
        "SeriesNumber": 11,
        "SeriesTime": "133144.609000",
        "SliceLocation": -50.7732,
        "SliceThickness": 4.0,
        "SoftwareVersions": "syngo MR B17",
        "SpacingBetweenSlices": 4.0,
        "SpecificCharacterSet": "ISO_IR 100",
        "StudyID": "2",
        "StudyTime": "124343.203000",
        "TransmitCoilName": "Body",
        "VariableFlipAngleFlag": "N",
        "dBdt": 0.0
      },
      "slices": {}
    },
    "modality": "bold",
    "subject_id": "CTS215",
    "task_id": "restfixationadaptive",
    "time": {
      "samples": {
        "AcquisitionNumber": [
          1,
          2,
          3,
          4,
          5,
          6,
          7,
          8,
          9,
          10,
          11,
          12,
          13,
          14,
          15,
          16,
          17,
          18,
          19,
          20,
          21,
          22,
          23,
          24,
          25,
          26,
          27,
          28,
          29,
          30,
          31,
          32,
          33,
          34,
          35,
          36,
          37,
          38,
          39,
          40,
          41,
          42,
          43,
          44,
          45,
          46,
          47,
          48,
          49,
          50,
          51,
          52,
          53,
          54,
          55,
          56,
          57,
          58,
          59,
          60,
          61,
          62,
          63,
          64,
          65,
          66,
          67,
          68,
          69,
          70,
          71,
          72,
          73,
          74,
          75,
          76,
          77,
          78,
          79,
          80,
          81,
          82,
          83,
          84,
          85,
          86,
          87,
          88,
          89,
          90,
          91,
          92,
          93,
          94,
          95,
          96,
          97,
          98,
          99,
          100,
          101,
          102,
          103,
          104,
          105,
          106,
          107,
          108,
          109,
          110,
          111,
          112,
          113,
          114,
          115,
          116,
          117,
          118,
          119,
          120,
          121,
          122,
          123,
          124,
          125,
          126,
          127,
          128,
          129,
          130,
          131,
          132,
          133,
          134,
          135,
          136,
          137,
          138,
          139,
          140,
          141,
          142,
          143,
          144,
          145,
          146,
          147,
          148,
          149,
          150,
          151,
          152,
          153,
          154,
          155,
          156,
          157,
          158,
          159,
          160,
          161,
          162,
          163,
          164
        ],
        "AcquisitionTime": [
          "133143.250000",
          "133145.760000",
          "133148.270000",
          "133150.780000",
          "133153.290000",
          "133155.800000",
          "133158.310000",
          "133200.820000",
          "133203.330000",
          "133205.840000",
          "133208.350000",
          "133210.860000",
          "133213.370000",
          "133215.880000",
          "133218.390000",
          "133220.900000",
          "133223.410000",
          "133225.920000",
          "133228.430000",
          "133230.940000",
          "133233.450000",
          "133235.960000",
          "133238.470000",
          "133240.980000",
          "133243.490000",
          "133246.000000",
          "133248.510000",
          "133251.020000",
          "133253.530000",
          "133256.040000",
          "133258.550000",
          "133301.060000",
          "133303.570000",
          "133306.080000",
          "133308.590000",
          "133311.100000",
          "133313.610000",
          "133316.120000",
          "133318.630000",
          "133321.140000",
          "133323.650000",
          "133326.160000",
          "133328.670000",
          "133331.180000",
          "133333.690000",
          "133336.200000",
          "133338.710000",
          "133341.220000",
          "133343.730000",
          "133346.242500",
          "133348.752500",
          "133351.262500",
          "133353.772500",
          "133356.282500",
          "133358.792500",
          "133401.302500",
          "133403.812500",
          "133406.322500",
          "133408.832500",
          "133411.342500",
          "133413.852500",
          "133416.362500",
          "133418.872500",
          "133421.382500",
          "133423.892500",
          "133426.402500",
          "133428.912500",
          "133431.422500",
          "133433.932500",
          "133436.442500",
          "133438.952500",
          "133441.462500",
          "133443.972500",
          "133446.482500",
          "133448.992500",
          "133451.502500",
          "133454.012500",
          "133456.522500",
          "133459.032500",
          "133501.542500",
          "133504.052500",
          "133506.562500",
          "133509.072500",
          "133511.582500",
          "133514.092500",
          "133516.602500",
          "133519.112500",
          "133521.622500",
          "133524.132500",
          "133526.642500",
          "133529.152500",
          "133531.662500",
          "133534.172500",
          "133536.682500",
          "133539.192500",
          "133541.702500",
          "133544.212500",
          "133546.722500",
          "133549.232500",
          "133551.742500",
          "133554.252500",
          "133556.762500",
          "133559.272500",
          "133601.782500",
          "133604.292500",
          "133606.802500",
          "133609.312500",
          "133611.822500",
          "133614.332500",
          "133616.842500",
          "133619.352500",
          "133621.865000",
          "133624.375000",
          "133626.885000",
          "133629.395000",
          "133631.905000",
          "133634.415000",
          "133636.925000",
          "133639.435000",
          "133641.945000",
          "133644.455000",
          "133646.965000",
          "133649.475000",
          "133651.985000",
          "133654.495000",
          "133657.005000",
          "133659.515000",
          "133702.025000",
          "133704.535000",
          "133707.045000",
          "133709.555000",
          "133712.065000",
          "133714.575000",
          "133717.085000",
          "133719.595000",
          "133722.105000",
          "133724.615000",
          "133727.125000",
          "133729.635000",
          "133732.145000",
          "133734.655000",
          "133737.165000",
          "133739.675000",
          "133742.185000",
          "133744.695000",
          "133747.205000",
          "133749.715000",
          "133752.225000",
          "133754.735000",
          "133757.245000",
          "133759.755000",
          "133802.265000",
          "133804.775000",
          "133807.285000",
          "133809.795000",
          "133812.305000",
          "133814.815000",
          "133817.325000",
          "133819.835000",
          "133822.345000",
          "133824.855000",
          "133827.365000",
          "133829.875000",
          "133832.385000"
        ],
        "ContentTime": [
          "133144.625000",
          "133147.109000",
          "133149.609000",
          "133152.109000",
          "133154.609000",
          "133157.109000",
          "133159.609000",
          "133202.109000",
          "133204.609000",
          "133207.109000",
          "133209.609000",
          "133212.109000",
          "133214.609000",
          "133217.109000",
          "133219.609000",
          "133222.109000",
          "133224.609000",
          "133227.109000",
          "133229.609000",
          "133232.109000",
          "133234.609000",
          "133237.109000",
          "133239.609000",
          "133242.109000",
          "133244.609000",
          "133247.109000",
          "133249.609000",
          "133252.109000",
          "133254.609000",
          "133257.109000",
          "133259.609000",
          "133302.109000",
          "133304.609000",
          "133307.109000",
          "133309.609000",
          "133312.109000",
          "133314.609000",
          "133317.109000",
          "133319.609000",
          "133322.109000",
          "133324.609000",
          "133327.109000",
          "133329.609000",
          "133332.109000",
          "133334.609000",
          "133337.109000",
          "133339.609000",
          "133342.109000",
          "133344.609000",
          "133347.109000",
          "133349.609000",
          "133352.109000",
          "133354.609000",
          "133357.109000",
          "133359.609000",
          "133402.109000",
          "133404.609000",
          "133407.109000",
          "133409.609000",
          "133412.109000",
          "133414.609000",
          "133417.109000",
          "133419.609000",
          "133422.109000",
          "133424.609000",
          "133427.109000",
          "133429.609000",
          "133432.109000",
          "133434.609000",
          "133437.109000",
          "133439.609000",
          "133442.109000",
          "133444.609000",
          "133447.109000",
          "133449.609000",
          "133452.109000",
          "133454.609000",
          "133457.109000",
          "133459.609000",
          "133502.109000",
          "133504.609000",
          "133507.109000",
          "133509.609000",
          "133512.109000",
          "133514.609000",
          "133517.109000",
          "133519.609000",
          "133522.109000",
          "133524.609000",
          "133527.109000",
          "133529.609000",
          "133532.109000",
          "133534.609000",
          "133537.109000",
          "133539.609000",
          "133542.109000",
          "133544.609000",
          "133547.109000",
          "133549.609000",
          "133552.109000",
          "133554.609000",
          "133557.109000",
          "133559.609000",
          "133602.109000",
          "133604.609000",
          "133607.109000",
          "133609.609000",
          "133612.109000",
          "133614.609000",
          "133617.109000",
          "133619.609000",
          "133622.109000",
          "133624.609000",
          "133627.109000",
          "133629.609000",
          "133632.109000",
          "133634.609000",
          "133637.109000",
          "133639.609000",
          "133642.109000",
          "133644.609000",
          "133647.109000",
          "133649.609000",
          "133652.109000",
          "133654.609000",
          "133657.109000",
          "133659.609000",
          "133702.109000",
          "133704.609000",
          "133707.109000",
          "133709.609000",
          "133712.109000",
          "133714.609000",
          "133717.109000",
          "133719.609000",
          "133722.109000",
          "133724.609000",
          "133727.109000",
          "133729.609000",
          "133732.109000",
          "133734.609000",
          "133737.109000",
          "133739.609000",
          "133742.109000",
          "133744.609000",
          "133747.109000",
          "133749.609000",
          "133752.109000",
          "133754.609000",
          "133757.109000",
          "133759.609000",
          "133802.109000",
          "133804.609000",
          "133807.109000",
          "133809.609000",
          "133812.109000",
          "133814.609000",
          "133817.109000",
          "133819.609000",
          "133822.109000",
          "133824.609000",
          "133827.109000",
          "133829.609000",
          "133832.093000"
        ],
        "InstanceNumber": [
          1,
          2,
          3,
          4,
          5,
          6,
          7,
          8,
          9,
          10,
          11,
          12,
          13,
          14,
          15,
          16,
          17,
          18,
          19,
          20,
          21,
          22,
          23,
          24,
          25,
          26,
          27,
          28,
          29,
          30,
          31,
          32,
          33,
          34,
          35,
          36,
          37,
          38,
          39,
          40,
          41,
          42,
          43,
          44,
          45,
          46,
          47,
          48,
          49,
          50,
          51,
          52,
          53,
          54,
          55,
          56,
          57,
          58,
          59,
          60,
          61,
          62,
          63,
          64,
          65,
          66,
          67,
          68,
          69,
          70,
          71,
          72,
          73,
          74,
          75,
          76,
          77,
          78,
          79,
          80,
          81,
          82,
          83,
          84,
          85,
          86,
          87,
          88,
          89,
          90,
          91,
          92,
          93,
          94,
          95,
          96,
          97,
          98,
          99,
          100,
          101,
          102,
          103,
          104,
          105,
          106,
          107,
          108,
          109,
          110,
          111,
          112,
          113,
          114,
          115,
          116,
          117,
          118,
          119,
          120,
          121,
          122,
          123,
          124,
          125,
          126,
          127,
          128,
          129,
          130,
          131,
          132,
          133,
          134,
          135,
          136,
          137,
          138,
          139,
          140,
          141,
          142,
          143,
          144,
          145,
          146,
          147,
          148,
          149,
          150,
          151,
          152,
          153,
          154,
          155,
          156,
          157,
          158,
          159,
          160,
          161,
          162,
          163,
          164
        ],
        "WindowCenter": [
          632.0,
          631.0,
          636.0,
          630.0,
          633.0,
          629.0,
          629.0,
          628.0,
          629.0,
          630.0,
          629.0,
          630.0,
          634.0,
          634.0,
          634.0,
          629.0,
          630.0,
          632.0,
          630.0,
          628.0,
          630.0,
          629.0,
          629.0,
          630.0,
          631.0,
          630.0,
          634.0,
          630.0,
          629.0,
          629.0,
          630.0,
          630.0,
          630.0,
          634.0,
          630.0,
          630.0,
          631.0,
          631.0,
          630.0,
          630.0,
          630.0,
          630.0,
          630.0,
          632.0,
          632.0,
          630.0,
          631.0,
          629.0,
          633.0,
          630.0,
          630.0,
          630.0,
          630.0,
          630.0,
          630.0,
          631.0,
          630.0,
          629.0,
          628.0,
          629.0,
          630.0,
          630.0,
          630.0,
          630.0,
          630.0,
          629.0,
          630.0,
          629.0,
          630.0,
          630.0,
          630.0,
          630.0,
          631.0,
          631.0,
          630.0,
          629.0,
          631.0,
          630.0,
          630.0,
          631.0,
          631.0,
          631.0,
          629.0,
          630.0,
          630.0,
          630.0,
          628.0,
          630.0,
          629.0,
          630.0,
          629.0,
          630.0,
          631.0,
          631.0,
          630.0,
          628.0,
          629.0,
          628.0,
          628.0,
          629.0,
          631.0,
          630.0,
          631.0,
          630.0,
          630.0,
          630.0,
          630.0,
          631.0,
          631.0,
          632.0,
          633.0,
          631.0,
          630.0,
          629.0,
          631.0,
          631.0,
          630.0,
          630.0,
          627.0,
          629.0,
          628.0,
          629.0,
          628.0,
          630.0,
          629.0,
          629.0,
          629.0,
          630.0,
          629.0,
          629.0,
          629.0,
          631.0,
          629.0,
          631.0,
          630.0,
          630.0,
          629.0,
          628.0,
          632.0,
          630.0,
          631.0,
          628.0,
          630.0,
          630.0,
          631.0,
          629.0,
          630.0,
          629.0,
          630.0,
          631.0,
          631.0,
          631.0,
          629.0,
          630.0,
          629.0,
          630.0,
          630.0,
          629.0,
          630.0,
          629.0,
          629.0,
          630.0,
          630.0,
          629.0
        ],
        "WindowWidth": [
          1363.0,
          1361.0,
          1369.0,
          1359.0,
          1364.0,
          1356.0,
          1354.0,
          1354.0,
          1356.0,
          1358.0,
          1356.0,
          1358.0,
          1366.0,
          1366.0,
          1365.0,
          1356.0,
          1359.0,
          1362.0,
          1359.0,
          1353.0,
          1358.0,
          1356.0,
          1356.0,
          1359.0,
          1360.0,
          1358.0,
          1366.0,
          1357.0,
          1355.0,
          1355.0,
          1357.0,
          1357.0,
          1358.0,
          1366.0,
          1358.0,
          1357.0,
          1360.0,
          1360.0,
          1358.0,
          1358.0,
          1358.0,
          1358.0,
          1358.0,
          1362.0,
          1363.0,
          1359.0,
          1359.0,
          1356.0,
          1363.0,
          1358.0,
          1358.0,
          1357.0,
          1358.0,
          1357.0,
          1358.0,
          1360.0,
          1358.0,
          1356.0,
          1354.0,
          1356.0,
          1358.0,
          1358.0,
          1357.0,
          1358.0,
          1359.0,
          1355.0,
          1357.0,
          1357.0,
          1357.0,
          1357.0,
          1357.0,
          1357.0,
          1361.0,
          1360.0,
          1357.0,
          1355.0,
          1359.0,
          1359.0,
          1358.0,
          1360.0,
          1360.0,
          1359.0,
          1357.0,
          1358.0,
          1357.0,
          1357.0,
          1354.0,
          1357.0,
          1356.0,
          1358.0,
          1356.0,
          1358.0,
          1359.0,
          1359.0,
          1357.0,
          1354.0,
          1356.0,
          1354.0,
          1354.0,
          1355.0,
          1359.0,
          1358.0,
          1359.0,
          1357.0,
          1358.0,
          1358.0,
          1358.0,
          1360.0,
          1361.0,
          1362.0,
          1363.0,
          1359.0,
          1358.0,
          1357.0,
          1359.0,
          1361.0,
          1358.0,
          1358.0,
          1352.0,
          1356.0,
          1354.0,
          1355.0,
          1353.0,
          1357.0,
          1355.0,
          1355.0,
          1356.0,
          1358.0,
          1356.0,
          1355.0,
          1357.0,
          1360.0,
          1356.0,
          1360.0,
          1358.0,
          1359.0,
          1357.0,
          1354.0,
          1361.0,
          1357.0,
          1360.0,
          1353.0,
          1358.0,
          1358.0,
          1359.0,
          1356.0,
          1358.0,
          1356.0,
          1358.0,
          1360.0,
          1360.0,
          1359.0,
          1356.0,
          1357.0,
          1356.0,
          1358.0,
          1358.0,
          1357.0,
          1357.0,
          1356.0,
          1355.0,
          1359.0,
          1358.0,
          1355.0
        ]
      },
      "slices": {}
    }
  },
  "dummy_trs": 1,
  "dvars_nstd": 13.533015198086419,
  "dvars_std": 1.3241667828395063,
  "dvars_vstd": 0.9958974432716049,
  "efc": 0.4058443462077065,
  "fber": 49864.41015625,
  "fd_mean": 0.04227750403700543,
  "fd_num": 3,
  "fd_perc": 1.8404907975460123,
  "fwhm_avg": 1.7034866666666666,
  "fwhm_x": 1.5654225,
  "fwhm_y": 1.8759625,
  "fwhm_z": 1.669075,
  "gcor": 0.0103749,
  "gsr_x": -0.02486308105289936,
  "gsr_y": 0.010314843617379665,
  "provenance": {
    "md5sum": "db6515e961d42d654c085fa3b84f31b4",
    "settings": {
      "fd_thres": 0.2,
      "testing": false
    },
    "software": "mriqc",
    "version": "22.0.0rc1",
    "webapi_port": null,
    "webapi_url": "https://mriqc.nimh.nih.gov/api/v1"
  },
  "size_t": 163,
  "size_x": 64,
  "size_y": 64,
  "size_z": 32,
  "snr": 7.808072892624143,
  "spacing_tr": 2.5,
  "spacing_x": 4.0,
  "spacing_y": 4.0,
  "spacing_z": 4.0,
  "summary_bg_k": 41.05922757073001,
  "summary_bg_mad": 2.628662573236129,
  "summary_bg_mean": 17.58104133605957,
  "summary_bg_median": 3.6073617935180664,
  "summary_bg_n": 89095.0,
  "summary_bg_p05": 1.4049079418182373,
  "summary_bg_p95": 86.10000000000002,
  "summary_bg_stdv": 43.40093994140625,
  "summary_fg_k": 2.4817587587354426,
  "summary_fg_mad": 97.49693176690437,
  "summary_fg_mean": 818.1632690429688,
  "summary_fg_median": 816.3067016601562,
  "summary_fg_n": 15751.0,
  "summary_fg_p05": 661.309814453125,
  "summary_fg_p95": 979.288330078125,
  "summary_fg_stdv": 104.54318237304688,
  "tsnr": 118.70544407097623
}