{
  "aor": 0.004591585365853658,
  "aqi": 0.005785573475609756,
  "bids_meta": {
    "AcquisitionMatrixPE": 64,
    "AcquisitionNumber": 1,
    "AcquisitionTime": "14:05:33.250000",
    "BandwidthPerPixelPhaseEncode": 26.483,
    "BaseResolution": 64,
    "BodyPartExamined": "HEAD",
    "CogAtlasID": "TODO",
    "ConversionSoftware": "dcm2niix",
    "ConversionSoftwareVersion": "v1.0.20171017 GCC6.3.0",
    "DerivedVendorReportedEchoSpacing": 0.000590001,
    "DeviceSerialNumber": "35177",
    "DwellTime": 4.1e-06,
    "EchoTime": 0.027,
    "EffectiveEchoSpacing": 0.000590001,
    "FlipAngle": 90,
    "ImageOrientationPatientDICOM": [
      0.998027,
      0.0455957,
      0.0431735,
      -0.056165,
      0.955658,
      0.289074
    ],
    "ImageType": [
      "ORIGINAL",
      "PRIMARY",
      "M",
      "ND",
      "NORM",
      "MOSAIC"
    ],
    "InPlanePhaseEncodingDirectionDICOM": "COL",
    "InstitutionAddress": "Scott_Ave._4525_St._Louis_MO_US_63110",
    "InstitutionName": "Washington_University",
    "InstitutionalDepartmentName": "Department",
    "MRAcquisitionType": "2D",
    "MagneticFieldStrength": 3,
    "Manufacturer": "Siemens",
    "ManufacturersModelName": "TrioTim",
    "Modality": "MR",
    "PartialFourier": 1,
    "PatientPosition": "HFS",
    "PercentPhaseFOV": 100,
    "PhaseEncodingDirection": "j-",
    "PhaseEncodingSteps": 64,
    "PhaseResolution": 1,
    "PixelBandwidth": 1905,
    "ProcedureStepDescription": "head_GREENE",
    "ProtocolName": "ep2d_bold_nonad_movie_1A",
    "PulseSequenceDetails": "%SiemensSeq%_ep2d_bold",
    "ReceiveCoilName": "HeadMatrix",
    "ReconMatrixPE": 64,
    "RepetitionTime": 2.5,
    "SAR": 0.15792,
    "ScanOptions": "FS",
    "ScanningSequence": "EP",
    "SequenceName": "_epfid2d1_64",
    "SequenceVariant": "SK",
    "SeriesDescription": "ep2d_bold_nonad_movie_1A",
    "SeriesNumber": 8,
    "ShimSetting": [
      -212,
      -19588,
      8007,
      441,
      122,
      -326,
      -139,
      -25
    ],
    "SliceThickness": 4,
    "SliceTiming": [
      1.255,
      0,
      1.335,
      0.08,
      1.4125,
      0.1575,
      1.49,
      0.235,
      1.57,
      0.315,
      1.6475,
      0.3925,
      1.725,
      0.4725,
      1.805,
      0.55,
      1.8825,
      0.6275,
      1.9625,
      0.7075,
      2.04,
      0.785,
      2.1175,
      0.8625,
      2.1975,
      0.9425,
      2.275,
      1.02,
      2.3525,
      1.1,
      2.4325,
      1.1775
    ],
    "SoftwareVersions": "syngo_MR_B17",
    "SpacingBetweenSlices": 4,
    "StationName": "MRC35177",
    "TaskName": "restmoviefixed",
    "TotalReadoutTime": 0.0371701,
    "TxRefAmp": 343.009,
    "dataset": "ds000256",
    "dcmmeta_affine": [
      [
        -3.9921064376831055,
        -0.22466008365154266,
        0.11231432110071182,
        136.10104370117188
      ],
      [
        -0.18238267302513123,
        3.8226311206817627,
        1.163712739944458,
        -115.7879638671875
      ],
      [
        0.17269401252269745,
        -1.1562951803207397,
        3.825331211090088,
        13.105631828308105
      ],
      [
        0.0,
        0.0,
        0.0,
        1.0
      ]
    ],
    "dcmmeta_reorient_transform": [
      [
        0.0,
        -1.0,
        0.0,
        63.0
      ],
      [
        1.0,
        0.0,
        0.0,
        0.0
      ],
      [
        0.0,
        0.0,
        1.0,
        0.0
      ],
      [
        0.0,
        0.0,
        0.0,
        1.0
      ]
    ],
    "dcmmeta_shape": [
      64,
      64,
      32,
      164
    ],
    "dcmmeta_slice_dim": 2,
    "dcmmeta_version": 0.6,
    "global": {
      "const": {
        "AccessionNumber": ".",
        "AcquisitionMatrix": [
          64,
          0,
          0,
          64
        ],
        "AngioFlag": "N",
        "BitsAllocated": 16,
        "BitsStored": 12,
        "BodyPartExamined": "HEAD",
        "Columns": 384,
        "DeidentificationMethodCodeSequence": [
          {
            "CodeMeaning": "XNAT Edit Script",
            "CodeValue": "625500",
            "CodingSchemeDesignator": "XNAT",
            "CodingSchemeVersion": "0.1"
          }
        ],
        "EchoNumbers": 1,
        "EchoTime": 27.0,
        "EchoTrainLength": 1,
        "FlipAngle": 90.0,
        "HighBit": 11,
        "ImageOrientationPatient": [
          0.99802659465083,
          0.04559566974834,
          0.04317350194114,
          -0.0561650222241,
          0.95565779658628,
          0.28907380736141
        ],
        "ImagePositionPatient": [
          -724.73886697266,
          -765.84002010473,
          -272.37924569341
        ],
        "ImageType": [
          "ORIGINAL",
          "PRIMARY",
          "M",
          "ND",
          "NORM",
          "MOSAIC"
        ],
        "ImagedNucleus": "1H",
        "ImagingFrequency": 123.255866,
        "InPlanePhaseEncodingDirection": "COL",
        "MRAcquisitionType": "2D",
        "MagneticFieldStrength": 3.0,
        "Manufacturer": "SIEMENS",
        "ManufacturerModelName": "TrioTim",
        "Modality": "MR",
        "NumberOfAverages": 1.0,
        "NumberOfPhaseEncodingSteps": 64,
        "PercentPhaseFieldOfView": 100.0,
        "PercentSampling": 100.0,
        "PerformedProcedureStepStartTime": "133256.609000",
        "PhotometricInterpretation": "MONOCHROME2",
        "PixelBandwidth": 1905.0,
        "PixelRepresentation": 0,
        "PixelSpacing": [
          4.0,
          4.0
        ],
        "PositionReferenceIndicator": "",
        "ProtocolName": "ep2d_bold_nonad_movie_1A",
        "RepetitionTime": 2500.0,
        "Rows": 384,
        "SAR": 0.15792030170501,
        "SamplesPerPixel": 1,
        "ScanOptions": "FS",
        "ScanningSequence": "EP",
        "SequenceName": "*epfid2d1_64",
        "SequenceVariant": "SK",
        "SeriesDescription": "ep2d_bold_nonad_movie_1A",
        "SeriesNumber": 8,
        "SeriesTime": "140534.921000",
        "SliceLocation": -17.331113037268,
        "SliceThickness": 4.0,
        "SmallestImagePixelValue": 0,
        "SoftwareVersions": "syngo MR B17",
        "SpacingBetweenSlices": 4.0000001477151,
        "SpecificCharacterSet": "ISO_IR 100",
        "StudyID": "1",
        "StudyTime": "133256.562000",
        "TransmitCoilName": "Body",
        "VariableFlipAngleFlag": "N",
        "WindowCenterWidthExplanation": "Algo1",
        "dBdt": 0.0
      },
      "slices": {}
    },
    "modality": "bold",
    "subject_id": "CTS225",
    "task_id": "restmoviefixed",
    "time": {
      "samples": {
        "AcquisitionNumber": [
          1,
          2,
          3,
          4,
          5,
          6,
          7,
          8,
          9,
          10,
          11,
          12,
          13,
          14,
          15,
          16,
          17,
          18,
          19,
          20,
          21,
          22,
          23,
          24,
          25,
          26,
          27,
          28,
          29,
          30,
          31,
          32,
          33,
          34,
          35,
          36,
          37,
          38,
          39,
          40,
          41,
          42,
          43,
          44,
          45,
          46,
          47,
          48,
          49,
          50,
          51,
          52,
          53,
          54,
          55,
          56,
          57,
          58,
          59,
          60,
          61,
          62,
          63,
          64,
          65,
          66,
          67,
          68,
          69,
          70,
          71,
          72,
          73,
          74,
          75,
          76,
          77,
          78,
          79,
          80,
          81,
          82,
          83,
          84,
          85,
          86,
          87,
          88,
          89,
          90,
          91,
          92,
          93,
          94,
          95,
          96,
          97,
          98,
          99,
          100,
          101,
          102,
          103,
          104,
          105,
          106,
          107,
          108,
          109,
          110,
          111,
          112,
          113,
          114,
          115,
          116,
          117,
          118,
          119,
          120,
          121,
          122,
          123,
          124,
          125,
          126,
          127,
          128,
          129,
          130,
          131,
          132,
          133,
          134,
          135,
          136,
          137,
          138,
          139,
          140,
          141,
          142,
          143,
          144,
          145,
          146,
          147,
          148,
          149,
          150,
          151,
          152,
          153,
          154,
          155,
          156,
          157,
          158,
          159,
          160,
          161,
          162,
          163,
          164
        ],
        "AcquisitionTime": [
          "140533.250000",
          "140535.760000",
          "140538.270000",
          "140540.780000",
          "140543.290000",
          "140545.800000",
          "140548.310000",
          "140550.820000",
          "140553.330000",
          "140555.840000",
          "140558.350000",
          "140600.860000",
          "140603.370000",
          "140605.880000",
          "140608.392500",
          "140610.902500",
          "140613.412500",
          "140615.922500",
          "140618.432500",
          "140620.942500",
          "140623.452500",
          "140625.962500",
          "140628.472500",
          "140630.982500",
          "140633.492500",
          "140636.002500",
          "140638.512500",
          "140641.022500",
          "140643.532500",
          "140646.042500",
          "140648.552500",
          "140651.062500",
          "140653.572500",
          "140656.082500",
          "140658.592500",
          "140701.102500",
          "140703.612500",
          "140706.122500",
          "140708.632500",
          "140711.142500",
          "140713.652500",
          "140716.162500",
          "140718.672500",
          "140721.182500",
          "140723.692500",
          "140726.202500",
          "140728.712500",
          "140731.222500",
          "140733.732500",
          "140736.242500",
          "140738.752500",
          "140741.262500",
          "140743.772500",
          "140746.282500",
          "140748.792500",
          "140751.302500",
          "140753.812500",
          "140756.322500",
          "140758.832500",
          "140801.342500",
          "140803.852500",
          "140806.362500",
          "140808.872500",
          "140811.382500",
          "140813.892500",
          "140816.402500",
          "140818.912500",
          "140821.422500",
          "140823.932500",
          "140826.442500",
          "140828.952500",
          "140831.462500",
          "140833.972500",
          "140836.482500",
          "140838.992500",
          "140841.502500",
          "140844.012500",
          "140846.525000",
          "140849.035000",
          "140851.545000",
          "140854.055000",
          "140856.565000",
          "140859.075000",
          "140901.585000",
          "140904.095000",
          "140906.605000",
          "140909.115000",
          "140911.625000",
          "140914.135000",
          "140916.645000",
          "140919.155000",
          "140921.665000",
          "140924.175000",
          "140926.685000",
          "140929.195000",
          "140931.705000",
          "140934.215000",
          "140936.725000",
          "140939.235000",
          "140941.745000",
          "140944.255000",
          "140946.765000",
          "140949.275000",
          "140951.785000",
          "140954.295000",
          "140956.805000",
          "140959.315000",
          "141001.825000",
          "141004.335000",
          "141006.845000",
          "141009.355000",
          "141011.865000",
          "141014.375000",
          "141016.885000",
          "141019.395000",
          "141021.905000",
          "141024.415000",
          "141026.925000",
          "141029.435000",
          "141031.945000",
          "141034.455000",
          "141036.965000",
          "141039.475000",
          "141041.985000",
          "141044.495000",
          "141047.005000",
          "141049.515000",
          "141052.025000",
          "141054.535000",
          "141057.045000",
          "141059.555000",
          "141102.065000",
          "141104.575000",
          "141107.085000",
          "141109.595000",
          "141112.105000",
          "141114.615000",
          "141117.125000",
          "141119.635000",
          "141122.147500",
          "141124.657500",
          "141127.167500",
          "141129.677500",
          "141132.187500",
          "141134.697500",
          "141137.207500",
          "141139.717500",
          "141142.227500",
          "141144.737500",
          "141147.247500",
          "141149.757500",
          "141152.267500",
          "141154.777500",
          "141157.287500",
          "141159.797500",
          "141202.307500",
          "141204.817500",
          "141207.327500",
          "141209.837500",
          "141212.347500",
          "141214.857500",
          "141217.367500",
          "141219.877500",
          "141222.387500"
        ],
        "ContentTime": [
          "140534.921000",
          "140537.421000",
          "140539.921000",
          "140542.421000",
          "140544.921000",
          "140547.421000",
          "140549.921000",
          "140552.421000",
          "140554.921000",
          "140557.421000",
          "140559.921000",
          "140602.421000",
          "140604.921000",
          "140607.421000",
          "140609.921000",
          "140612.421000",
          "140614.921000",
          "140617.421000",
          "140619.921000",
          "140622.421000",
          "140624.921000",
          "140627.421000",
          "140629.921000",
          "140632.421000",
          "140634.921000",
          "140637.421000",
          "140639.921000",
          "140642.421000",
          "140644.921000",
          "140647.421000",
          "140649.921000",
          "140652.421000",
          "140654.921000",
          "140657.421000",
          "140659.921000",
          "140702.421000",
          "140704.921000",
          "140707.421000",
          "140709.921000",
          "140712.421000",
          "140714.921000",
          "140717.421000",
          "140719.921000",
          "140722.421000",
          "140724.921000",
          "140727.421000",
          "140729.921000",
          "140732.421000",
          "140734.921000",
          "140737.421000",
          "140739.921000",
          "140742.421000",
          "140744.921000",
          "140747.421000",
          "140749.921000",
          "140752.421000",
          "140754.921000",
          "140757.421000",
          "140759.921000",
          "140802.421000",
          "140804.921000",
          "140807.421000",
          "140809.921000",
          "140812.421000",
          "140814.921000",
          "140817.421000",
          "140819.921000",
          "140822.421000",
          "140824.921000",
          "140827.421000",
          "140829.921000",
          "140832.421000",
          "140834.921000",
          "140837.421000",
          "140839.921000",
          "140842.421000",
          "140844.921000",
          "140847.421000",
          "140849.921000",
          "140852.421000",
          "140854.921000",
          "140857.421000",
          "140859.921000",
          "140902.421000",
          "140904.921000",
          "140907.421000",
          "140909.921000",
          "140912.421000",
          "140914.921000",
          "140917.421000",
          "140919.921000",
          "140922.421000",
          "140924.921000",
          "140927.421000",
          "140929.921000",
          "140932.421000",
          "140934.921000",
          "140937.421000",
          "140939.921000",
          "140942.421000",
          "140944.921000",
          "140947.421000",
          "140949.921000",
          "140952.421000",
          "140954.921000",
          "140957.421000",
          "140959.921000",
          "141002.421000",
          "141004.921000",
          "141007.421000",
          "141009.921000",
          "141012.421000",
          "141014.921000",
          "141017.421000",
          "141019.921000",
          "141022.421000",
          "141024.921000",
          "141027.421000",
          "141029.921000",
          "141032.421000",
          "141034.921000",
          "141037.421000",
          "141039.921000",
          "141042.421000",
          "141044.921000",
          "141047.421000",
          "141049.921000",
          "141052.421000",
          "141054.921000",
          "141057.421000",
          "141059.921000",
          "141102.421000",
          "141104.921000",
          "141107.421000",
          "141109.921000",
          "141112.421000",
          "141114.921000",
          "141117.421000",
          "141119.921000",
          "141122.421000",
          "141124.921000",
          "141127.421000",
          "141129.921000",
          "141132.421000",
          "141134.921000",
          "141137.421000",
          "141139.921000",
          "141142.421000",
          "141144.921000",
          "141147.421000",
          "141149.921000",
          "141152.421000",
          "141154.921000",
          "141157.421000",
          "141159.921000",
          "141202.421000",
          "141204.921000",
          "141207.421000",
          "141209.921000",
          "141212.421000",
          "141214.921000",
          "141217.421000",
          "141219.921000",
          "141222.375000"
        ],
        "InstanceCreationTime": [
          "140534.921000",
          "140537.421000",
          "140539.921000",
          "140542.421000",
          "140544.921000",
          "140547.421000",
          "140549.921000",
          "140552.421000",
          "140554.921000",
          "140557.421000",
          "140559.921000",
          "140602.421000",
          "140604.921000",
          "140607.421000",
          "140609.921000",
          "140612.421000",
          "140614.921000",
          "140617.421000",
          "140619.921000",
          "140622.421000",
          "140624.921000",
          "140627.421000",
          "140629.921000",
          "140632.421000",
          "140634.921000",
          "140637.421000",
          "140639.921000",
          "140642.421000",
          "140644.921000",
          "140647.421000",
          "140649.921000",
          "140652.421000",
          "140654.921000",
          "140657.421000",
          "140659.921000",
          "140702.421000",
          "140704.921000",
          "140707.421000",
          "140709.921000",
          "140712.421000",
          "140714.921000",
          "140717.421000",
          "140719.921000",
          "140722.421000",
          "140724.921000",
          "140727.421000",
          "140729.921000",
          "140732.421000",
          "140734.921000",
          "140737.421000",
          "140739.921000",
          "140742.421000",
          "140744.921000",
          "140747.421000",
          "140749.921000",
          "140752.421000",
          "140754.921000",
          "140757.421000",
          "140759.921000",
          "140802.421000",
          "140804.921000",
          "140807.421000",
          "140809.921000",
          "140812.421000",
          "140814.921000",
          "140817.421000",
          "140819.921000",
          "140822.421000",
          "140824.921000",
          "140827.421000",
          "140829.921000",
          "140832.421000",
          "140834.921000",
          "140837.421000",
          "140839.921000",
          "140842.421000",
          "140844.921000",
          "140847.421000",
          "140849.921000",
          "140852.421000",
          "140854.921000",
          "140857.421000",
          "140859.921000",
          "140902.421000",
          "140904.921000",
          "140907.421000",
          "140909.921000",
          "140912.421000",
          "140914.921000",
          "140917.421000",
          "140919.921000",
          "140922.421000",
          "140924.921000",
          "140927.421000",
          "140929.921000",
          "140932.421000",
          "140934.921000",
          "140937.421000",
          "140939.921000",
          "140942.421000",
          "140944.921000",
          "140947.421000",
          "140949.921000",
          "140952.421000",
          "140954.921000",
          "140957.421000",
          "140959.921000",
          "141002.421000",
          "141004.921000",
          "141007.421000",
          "141009.921000",
          "141012.421000",
          "141014.921000",
          "141017.421000",
          "141019.921000",
          "141022.421000",
          "141024.921000",
          "141027.421000",
          "141029.921000",
          "141032.421000",
          "141034.921000",
          "141037.421000",
          "141039.921000",
          "141042.421000",
          "141044.921000",
          "141047.421000",
          "141049.921000",
          "141052.421000",
          "141054.921000",
          "141057.421000",
          "141059.921000",
          "141102.421000",
          "141104.921000",
          "141107.421000",
          "141109.921000",
          "141112.421000",
          "141114.921000",
          "141117.421000",
          "141119.921000",
          "141122.421000",
          "141124.921000",
          "141127.421000",
          "141129.921000",
          "141132.421000",
          "141134.921000",
          "141137.421000",
          "141139.921000",
          "141142.421000",
          "141144.921000",
          "141147.421000",
          "141149.921000",
          "141152.421000",
          "141154.921000",
          "141157.421000",
          "141159.921000",
          "141202.421000",
          "141204.921000",
          "141207.421000",
          "141209.921000",
          "141212.421000",
          "141214.921000",
          "141217.421000",
          "141219.921000",
          "141222.375000"
        ],
        "InstanceNumber": [
          1,
          2,
          3,
          4,
          5,
          6,
          7,
          8,
          9,
          10,
          11,
          12,
          13,
          14,
          15,
          16,
          17,
          18,
          19,
          20,
          21,
          22,
          23,
          24,
          25,
          26,
          27,
          28,
          29,
          30,
          31,
          32,
          33,
          34,
          35,
          36,
          37,
          38,
          39,
          40,
          41,
          42,
          43,
          44,
          45,
          46,
          47,
          48,
          49,
          50,
          51,
          52,
          53,
          54,
          55,
          56,
          57,
          58,
          59,
          60,
          61,
          62,
          63,
          64,
          65,
          66,
          67,
          68,
          69,
          70,
          71,
          72,
          73,
          74,
          75,
          76,
          77,
          78,
          79,
          80,
          81,
          82,
          83,
          84,
          85,
          86,
          87,
          88,
          89,
          90,
          91,
          92,
          93,
          94,
          95,
          96,
          97,
          98,
          99,
          100,
          101,
          102,
          103,
          104,
          105,
          106,
          107,
          108,
          109,
          110,
          111,
          112,
          113,
          114,
          115,
          116,
          117,
          118,
          119,
          120,
          121,
          122,
          123,
          124,
          125,
          126,
          127,
          128,
          129,
          130,
          131,
          132,
          133,
          134,
          135,
          136,
          137,
          138,
          139,
          140,
          141,
          142,
          143,
          144,
          145,
          146,
          147,
          148,
          149,
          150,
          151,
          152,
          153,
          154,
          155,
          156,
          157,
          158,
          159,
          160,
          161,
          162,
          163,
          164
        ],
        "LargestImagePixelValue": [
          1311,
          1434,
          1317,
          1295,
          1363,
          1291,
          1303,
          1330,
          1265,
          1269,
          1285,
          1298,
          1260,
          1309,
          1299,
          1238,
          1248,
          1251,
          1293,
          1303,
          1306,
          1297,
          1298,
          1306,
          1285,
          1329,
          1225,
          1302,
          1289,
          1275,
          1333,
          1288,
          1267,
          1268,
          1309,
          1275,
          1293,
          1305,
          1325,
          1299,
          1269,
          1260,
          1294,
          1337,
          1331,
          1303,
          1303,
          1339,
          1277,
          1315,
          1330,
          1322,
          1292,
          1316,
          1312,
          1298,
          1272,
          1348,
          1320,
          1322,
          1323,
          1343,
          1298,
          1444,
          1303,
          1292,
          1293,
          1321,
          1263,
          1339,
          1320,
          1308,
          1326,
          1292,
          1326,
          1296,
          1303,
          1292,
          1326,
          1280,
          1301,
          1274,
          1309,
          1325,
          1333,
          1429,
          1341,
          1276,
          1328,
          1320,
          1332,
          1370,
          1288,
          1232,
          1316,
          1334,
          1316,
          1314,
          1324,
          1276,
          1311,
          1312,
          1304,
          1320,
          1319,
          1316,
          1306,
          1326,
          1293,
          1379,
          1361,
          1341,
          1318,
          1405,
          1286,
          1331,
          1372,
          1327,
          1300,
          1297,
          1337,
          1319,
          1302,
          1315,
          1332,
          1294,
          1285,
          1296,
          1313,
          1315,
          1297,
          1332,
          1287,
          1348,
          1353,
          1274,
          1325,
          1299,
          1320,
          1297,
          1305,
          1336,
          1282,
          1278,
          1336,
          1360,
          1324,
          1292,
          1280,
          1310,
          1287,
          1296,
          1327,
          1276,
          1310,
          1349,
          1286,
          1315,
          1326,
          1327,
          1288,
          1281,
          1323,
          1247
        ],
        "WindowCenter": [
          592.0,
          589.0,
          589.0,
          589.0,
          588.0,
          589.0,
          590.0,
          590.0,
          588.0,
          589.0,
          590.0,
          588.0,
          587.0,
          588.0,
          589.0,
          589.0,
          590.0,
          590.0,
          591.0,
          591.0,
          590.0,
          590.0,
          589.0,
          589.0,
          589.0,
          589.0,
          588.0,
          590.0,
          590.0,
          588.0,
          588.0,
          588.0,
          588.0,
          587.0,
          588.0,
          587.0,
          589.0,
          590.0,
          590.0,
          589.0,
          589.0,
          590.0,
          590.0,
          589.0,
          587.0,
          589.0,
          590.0,
          588.0,
          588.0,
          589.0,
          589.0,
          588.0,
          588.0,
          589.0,
          589.0,
          589.0,
          590.0,
          588.0,
          588.0,
          589.0,
          588.0,
          588.0,
          589.0,
          589.0,
          587.0,
          588.0,
          588.0,
          588.0,
          587.0,
          589.0,
          589.0,
          587.0,
          589.0,
          590.0,
          589.0,
          588.0,
          589.0,
          589.0,
          589.0,
          588.0,
          588.0,
          589.0,
          590.0,
          589.0,
          588.0,
          584.0,
          583.0,
          585.0,
          586.0,
          587.0,
          588.0,
          589.0,
          588.0,
          588.0,
          589.0,
          589.0,
          589.0,
          589.0,
          588.0,
          587.0,
          588.0,
          589.0,
          589.0,
          589.0,
          588.0,
          588.0,
          588.0,
          588.0,
          588.0,
          589.0,
          589.0,
          588.0,
          589.0,
          588.0,
          585.0,
          587.0,
          589.0,
          588.0,
          588.0,
          588.0,
          588.0,
          589.0,
          588.0,
          588.0,
          588.0,
          587.0,
          589.0,
          589.0,
          588.0,
          588.0,
          589.0,
          589.0,
          588.0,
          587.0,
          588.0,
          587.0,
          585.0,
          586.0,
          587.0,
          588.0,
          588.0,
          588.0,
          588.0,
          588.0,
          589.0,
          589.0,
          588.0,
          588.0,
          588.0,
