{
  "aor": 0.003520609756097561,
  "aqi": 0.007106166097560975,
  "bids_meta": {
    "AcquisitionMatrixPE": 64,
    "AcquisitionNumber": 1,
    "AcquisitionTime": "13:49:2.962500",
    "BandwidthPerPixelPhaseEncode": 26.483,
    "BaseResolution": 64,
    "BodyPartExamined": "HEAD",
    "CogAtlasID": "TODO",
    "ConversionSoftware": "dcm2niix",
    "ConversionSoftwareVersion": "v1.0.20171017 GCC6.3.0",
    "DerivedVendorReportedEchoSpacing": 0.000590001,
    "DeviceSerialNumber": "35177",
    "DwellTime": 4.1e-06,
    "EchoTime": 0.027,
    "EffectiveEchoSpacing": 0.000590001,
    "FlipAngle": 90,
    "ImageOrientationPatientDICOM": [
      0.998027,
      0.0455957,
      0.0431735,
      -0.056165,
      0.955658,
      0.289074
    ],
    "ImageType": [
      "ORIGINAL",
      "PRIMARY",
      "M",
      "ND",
      "NORM",
      "MOSAIC"
    ],
    "InPlanePhaseEncodingDirectionDICOM": "COL",
    "InstitutionAddress": "Scott_Ave._4525_St._Louis_MO_US_63110",
    "InstitutionName": "Washington_University",
    "InstitutionalDepartmentName": "Department",
    "MRAcquisitionType": "2D",
    "MagneticFieldStrength": 3,
    "Manufacturer": "Siemens",
    "ManufacturersModelName": "TrioTim",
    "Modality": "MR",
    "PartialFourier": 1,
    "PatientPosition": "HFS",
    "PercentPhaseFOV": 100,
    "PhaseEncodingDirection": "j-",
    "PhaseEncodingSteps": 64,
    "PhaseResolution": 1,
    "PixelBandwidth": 1905,
    "ProcedureStepDescription": "head_GREENE",
    "ProtocolName": "ep2d_bold_ad_movie_1B",
    "PulseSequenceDetails": "%SiemensSeq%_ep2d_bold",
    "ReceiveCoilName": "HeadMatrix",
    "ReconMatrixPE": 64,
    "RepetitionTime": 2.5,
    "SAR": 0.15792,
    "ScanOptions": "FS",
    "ScanningSequence": "EP",
    "SequenceName": "_epfid2d1_64",
    "SequenceVariant": "SK",
    "SeriesDescription": "ep2d_bold_ad_movie_1B",
    "SeriesNumber": 6,
    "ShimSetting": [
      -212,
      -19588,
      8007,
      441,
      122,
      -326,
      -139,
      -25
    ],
    "SliceThickness": 4,
    "SliceTiming": [
      1.255,
      0,
      1.335,
      0.08,
      1.4125,
      0.1575,
      1.49,
      0.235,
      1.57,
      0.315,
      1.6475,
      0.3925,
      1.725,
      0.4725,
      1.805,
      0.55,
      1.8825,
      0.6275,
      1.9625,
      0.7075,
      2.04,
      0.785,
      2.1175,
      0.8625,
      2.1975,
      0.9425,
      2.275,
      1.02,
      2.3525,
      1.0975,
      2.4325,
      1.1775
    ],
    "SoftwareVersions": "syngo_MR_B17",
    "SpacingBetweenSlices": 4,
    "StationName": "MRC35177",
    "TaskName": "restmovieadaptive",
    "TotalReadoutTime": 0.0371701,
    "TxRefAmp": 343.009,
    "dataset": "ds000256",
    "dcmmeta_affine": [
      [
        -3.9921064376831055,
        -0.22466008365154266,
        0.11231432110071182,
        136.10104370117188
      ],
      [
        -0.18238267302513123,
        3.8226311206817627,
        1.163712739944458,
        -115.7879638671875
      ],
      [
        0.17269401252269745,
        -1.1562951803207397,
        3.825331211090088,
        13.105631828308105
      ],
      [
        0.0,
        0.0,
        0.0,
        1.0
      ]
    ],
    "dcmmeta_reorient_transform": [
      [
        0.0,
        -1.0,
        0.0,
        63.0
      ],
      [
        1.0,
        0.0,
        0.0,
        0.0
      ],
      [
        0.0,
        0.0,
        1.0,
        0.0
      ],
      [
        0.0,
        0.0,
        0.0,
        1.0
      ]
    ],
    "dcmmeta_shape": [
      64,
      64,
      32,
      164
    ],
    "dcmmeta_slice_dim": 2,
    "dcmmeta_version": 0.6,
    "global": {
      "const": {
        "AccessionNumber": ".",
        "AcquisitionMatrix": [
          64,
          0,
          0,
          64
        ],
        "AngioFlag": "N",
        "BitsAllocated": 16,
        "BitsStored": 12,
        "BodyPartExamined": "HEAD",
        "Columns": 384,
        "DeidentificationMethodCodeSequence": [
          {
            "CodeMeaning": "XNAT Edit Script",
            "CodeValue": "625500",
            "CodingSchemeDesignator": "XNAT",
            "CodingSchemeVersion": "0.1"
          }
        ],
        "EchoNumbers": 1,
        "EchoTime": 27.0,
        "EchoTrainLength": 1,
        "FlipAngle": 90.0,
        "HighBit": 11,
        "ImageOrientationPatient": [
          0.99802659465083,
          0.04559566974834,
          0.04317350194114,
          -0.0561650222241,
          0.95565779658628,
          0.28907380736141
        ],
        "ImagePositionPatient": [
          -724.73886697266,
          -765.84002010473,
          -272.37924569341
        ],
        "ImageType": [
          "ORIGINAL",
          "PRIMARY",
          "M",
          "ND",
          "NORM",
          "MOSAIC"
        ],
        "ImagedNucleus": "1H",
        "ImagingFrequency": 123.255864,
        "InPlanePhaseEncodingDirection": "COL",
        "MRAcquisitionType": "2D",
        "MagneticFieldStrength": 3.0,
        "Manufacturer": "SIEMENS",
        "ManufacturerModelName": "TrioTim",
        "Modality": "MR",
        "NumberOfAverages": 1.0,
        "NumberOfPhaseEncodingSteps": 64,
        "PercentPhaseFieldOfView": 100.0,
        "PercentSampling": 100.0,
        "PerformedProcedureStepStartTime": "133256.609000",
        "PhotometricInterpretation": "MONOCHROME2",
        "PixelBandwidth": 1905.0,
        "PixelRepresentation": 0,
        "PixelSpacing": [
          4.0,
          4.0
        ],
        "PositionReferenceIndicator": "",
        "ProtocolName": "ep2d_bold_ad_movie_1B",
        "RepetitionTime": 2500.0,
        "Rows": 384,
        "SAR": 0.15792030170501,
        "SamplesPerPixel": 1,
        "ScanOptions": "FS",
        "ScanningSequence": "EP",
        "SequenceName": "*epfid2d1_64",
        "SequenceVariant": "SK",
        "SeriesDescription": "ep2d_bold_ad_movie_1B",
        "SeriesNumber": 6,
        "SeriesTime": "134905.625000",
        "SliceLocation": -17.331113037268,
        "SliceThickness": 4.0,
        "SmallestImagePixelValue": 0,
        "SoftwareVersions": "syngo MR B17",
        "SpacingBetweenSlices": 4.0000001477151,
        "SpecificCharacterSet": "ISO_IR 100",
        "StudyID": "1",
        "StudyTime": "133256.562000",
        "TransmitCoilName": "Body",
        "VariableFlipAngleFlag": "N",
        "WindowCenterWidthExplanation": "Algo1",
        "dBdt": 0.0
      },
      "slices": {}
    },
    "modality": "bold",
    "subject_id": "CTS225",
    "task_id": "restmovieadaptive",
    "time": {
      "samples": {
        "AcquisitionNumber": [
          1,
          2,
          3,
          4,
          5,
          6,
          7,
          8,
          9,
          10,
          11,
          12,
          13,
          14,
          15,
          16,
          17,
          18,
          19,
          20,
          21,
          22,
          23,
          24,
          25,
          26,
          27,
          28,
          29,
          30,
          31,
          32,
          33,
          34,
          35,
          36,
          37,
          38,
          39,
          40,
          41,
          42,
          43,
          44,
          45,
          46,
          47,
          48,
          49,
          50,
          51,
          52,
          53,
          54,
          55,
          56,
          57,
          58,
          59,
          60,
          61,
          62,
          63,
          64,
          65,
          66,
          67,
          68,
          69,
          70,
          71,
          72,
          73,
          74,
          75,
          76,
          77,
          78,
          79,
          80,
          81,
          82,
          83,
          84,
          85,
          86,
          87,
          88,
          89,
          90,
          91,
          92,
          93,
          94,
          95,
          96,
          97,
          98,
          99,
          100,
          101,
          102,
          103,
          104,
          105,
          106,
          107,
          108,
          109,
          110,
          111,
          112,
          113,
          114,
          115,
          116,
          117,
          118,
          119,
          120,
          121,
          122,
          123,
          124,
          125,
          126,
          127,
          128,
          129,
          130,
          131,
          132,
          133,
          134,
          135,
          136,
          137,
          138,
          139,
          140,
          141,
          142,
          143,
          144,
          145,
          146,
          147,
          148,
          149,
          150,
          151,
          152,
          153,
          154,
          155,
          156,
          157,
          158,
          159,
          160,
          161,
          162,
          163,
          164
        ],
        "AcquisitionTime": [
          "134902.962500",
          "134905.472500",
          "134907.982500",
          "134910.492500",
          "134913.002500",
          "134915.512500",
          "134918.022500",
          "134920.532500",
          "134923.042500",
          "134925.552500",
          "134928.062500",
          "134930.572500",
          "134933.082500",
          "134935.592500",
          "134938.102500",
          "134940.612500",
          "134943.122500",
          "134945.635000",
          "134948.145000",
          "134950.655000",
          "134953.165000",
          "134955.675000",
          "134958.185000",
          "135000.695000",
          "135003.205000",
          "135005.715000",
          "135008.225000",
          "135010.735000",
          "135013.245000",
          "135015.755000",
          "135018.265000",
          "135020.775000",
          "135023.285000",
          "135025.795000",
          "135028.305000",
          "135030.815000",
          "135033.325000",
          "135035.835000",
          "135038.345000",
          "135040.855000",
          "135043.365000",
          "135045.875000",
          "135048.385000",
          "135050.895000",
          "135053.405000",
          "135055.915000",
          "135058.425000",
          "135100.935000",
          "135103.445000",
          "135105.955000",
          "135108.465000",
          "135110.975000",
          "135113.485000",
          "135115.995000",
          "135118.505000",
          "135121.015000",
          "135123.525000",
          "135126.035000",
          "135128.545000",
          "135131.055000",
          "135133.565000",
          "135136.075000",
          "135138.585000",
          "135141.095000",
          "135143.605000",
          "135146.115000",
          "135148.625000",
          "135151.135000",
          "135153.645000",
          "135156.155000",
          "135158.665000",
          "135201.175000",
          "135203.685000",
          "135206.195000",
          "135208.705000",
          "135211.215000",
          "135213.725000",
          "135216.235000",
          "135218.745000",
          "135221.255000",
          "135223.767500",
          "135226.277500",
          "135228.787500",
          "135231.297500",
          "135233.807500",
          "135236.317500",
          "135238.827500",
          "135241.337500",
          "135243.847500",
          "135246.357500",
          "135248.867500",
          "135251.377500",
          "135253.887500",
          "135256.397500",
          "135258.907500",
          "135301.417500",
          "135303.927500",
          "135306.437500",
          "135308.947500",
          "135311.457500",
          "135313.967500",
          "135316.477500",
          "135318.987500",
          "135321.497500",
          "135324.007500",
          "135326.517500",
          "135329.027500",
          "135331.537500",
          "135334.047500",
          "135336.557500",
          "135339.067500",
          "135341.577500",
          "135344.087500",
          "135346.597500",
          "135349.107500",
          "135351.617500",
          "135354.127500",
          "135356.637500",
          "135359.147500",
          "135401.657500",
          "135404.167500",
          "135406.677500",
          "135409.187500",
          "135411.697500",
          "135414.207500",
          "135416.717500",
          "135419.227500",
          "135421.737500",
          "135424.247500",
          "135426.757500",
          "135429.267500",
          "135431.777500",
          "135434.287500",
          "135436.797500",
          "135439.307500",
          "135441.817500",
          "135444.327500",
          "135446.837500",
          "135449.347500",
          "135451.857500",
          "135454.367500",
          "135456.877500",
          "135459.390000",
          "135501.900000",
          "135504.410000",
          "135506.920000",
          "135509.430000",
          "135511.940000",
          "135514.450000",
          "135516.960000",
          "135519.470000",
          "135521.980000",
          "135524.490000",
          "135527.000000",
          "135529.510000",
          "135532.020000",
          "135534.530000",
          "135537.040000",
          "135539.550000",
          "135542.060000",
          "135544.570000",
          "135547.080000",
          "135549.590000",
          "135552.100000"
        ],
        "ContentTime": [
          "134905.625000",
          "134908.125000",
          "134910.625000",
          "134913.125000",
          "134915.625000",
          "134918.125000",
          "134920.625000",
          "134923.125000",
          "134925.625000",
          "134928.125000",
          "134930.625000",
          "134933.125000",
          "134935.625000",
          "134938.125000",
          "134940.625000",
          "134943.125000",
          "134945.625000",
          "134948.125000",
          "134950.625000",
          "134953.125000",
          "134955.625000",
          "134958.125000",
          "135000.625000",
          "135003.125000",
          "135005.625000",
          "135008.125000",
          "135010.625000",
          "135013.125000",
          "135015.625000",
          "135018.125000",
          "135020.625000",
          "135023.125000",
          "135025.625000",
          "135028.125000",
          "135030.625000",
          "135033.125000",
          "135035.625000",
          "135038.125000",
          "135040.625000",
          "135043.125000",
          "135045.625000",
          "135048.125000",
          "135050.625000",
          "135053.125000",
          "135055.625000",
          "135058.125000",
          "135100.625000",
          "135103.125000",
          "135105.625000",
          "135108.125000",
          "135110.625000",
          "135113.125000",
          "135115.625000",
          "135118.125000",
          "135120.625000",
          "135123.125000",
          "135125.625000",
          "135128.125000",
          "135130.625000",
          "135133.125000",
          "135135.625000",
          "135138.125000",
          "135140.625000",
          "135143.125000",
          "135145.625000",
          "135148.125000",
          "135150.625000",
          "135153.125000",
          "135155.625000",
          "135158.125000",
          "135200.625000",
          "135203.125000",
          "135205.625000",
          "135208.125000",
          "135210.625000",
          "135213.125000",
          "135215.625000",
          "135218.125000",
          "135220.625000",
          "135223.125000",
          "135225.625000",
          "135228.125000",
          "135230.625000",
          "135233.125000",
          "135235.625000",
          "135238.125000",
          "135240.625000",
          "135243.125000",
          "135245.625000",
          "135248.125000",
          "135250.625000",
          "135253.125000",
          "135255.625000",
          "135258.125000",
          "135300.625000",
          "135303.125000",
          "135305.625000",
          "135308.125000",
          "135310.625000",
          "135313.125000",
          "135315.625000",
          "135318.125000",
          "135320.625000",
          "135323.125000",
          "135325.625000",
          "135328.125000",
          "135330.625000",
          "135333.125000",
          "135335.625000",
          "135338.125000",
          "135340.625000",
          "135343.125000",
          "135345.625000",
          "135348.125000",
          "135350.625000",
          "135353.125000",
          "135355.625000",
          "135358.125000",
          "135400.625000",
          "135403.125000",
          "135405.625000",
          "135408.125000",
          "135410.625000",
          "135413.125000",
          "135415.625000",
          "135418.125000",
          "135420.625000",
          "135423.125000",
          "135425.625000",
          "135428.125000",
          "135430.625000",
          "135433.125000",
          "135435.625000",
          "135438.125000",
          "135440.625000",
          "135443.125000",
          "135445.625000",
          "135448.125000",
          "135450.625000",
          "135453.125000",
          "135455.625000",
          "135458.125000",
          "135500.625000",
          "135503.125000",
          "135505.625000",
          "135508.125000",
          "135510.625000",
          "135513.125000",
          "135515.625000",
          "135518.125000",
          "135520.625000",
          "135523.125000",
          "135525.625000",
          "135528.125000",
          "135530.625000",
          "135533.125000",
          "135535.625000",
          "135538.125000",
          "135540.625000",
          "135543.125000",
          "135545.625000",
          "135548.125000",
          "135550.625000",
          "135552.953000"
        ],
        "InstanceCreationTime": [
          "134905.625000",
          "134908.125000",
          "134910.625000",
          "134913.125000",
          "134915.625000",
          "134918.125000",
          "134920.625000",
          "134923.125000",
          "134925.625000",
          "134928.125000",
          "134930.625000",
          "134933.125000",
          "134935.625000",
          "134938.125000",
          "134940.625000",
          "134943.125000",
          "134945.625000",
          "134948.125000",
          "134950.625000",
          "134953.125000",
          "134955.625000",
          "134958.125000",
          "135000.625000",
          "135003.125000",
          "135005.625000",
          "135008.125000",
          "135010.625000",
          "135013.125000",
          "135015.625000",
          "135018.125000",
          "135020.625000",
          "135023.125000",
          "135025.625000",
          "135028.125000",
          "135030.625000",
          "135033.125000",
          "135035.625000",
          "135038.125000",
          "135040.625000",
          "135043.125000",
          "135045.625000",
          "135048.125000",
          "135050.625000",
          "135053.125000",
          "135055.625000",
          "135058.125000",
          "135100.625000",
          "135103.125000",
          "135105.625000",
          "135108.125000",
          "135110.625000",
          "135113.125000",
          "135115.625000",
          "135118.125000",
          "135120.625000",
          "135123.125000",
          "135125.625000",
          "135128.125000",
          "135130.625000",
          "135133.125000",
          "135135.625000",
          "135138.125000",
          "135140.625000",
          "135143.125000",
          "135145.625000",
          "135148.125000",
          "135150.625000",
          "135153.125000",
          "135155.625000",
          "135158.125000",
          "135200.625000",
          "135203.125000",
          "135205.625000",
          "135208.125000",
          "135210.625000",
          "135213.125000",
          "135215.625000",
          "135218.125000",
          "135220.625000",
          "135223.125000",
          "135225.625000",
          "135228.125000",
          "135230.625000",
          "135233.125000",
          "135235.625000",
          "135238.125000",
          "135240.625000",
          "135243.125000",
          "135245.625000",
          "135248.125000",
          "135250.625000",
          "135253.125000",
          "135255.625000",
          "135258.125000",
          "135300.625000",
          "135303.125000",
          "135305.625000",
          "135308.125000",
          "135310.625000",
          "135313.125000",
          "135315.625000",
          "135318.125000",
          "135320.625000",
          "135323.125000",
          "135325.625000",
          "135328.125000",
          "135330.625000",
          "135333.125000",
          "135335.625000",
          "135338.125000",
          "135340.625000",
          "135343.125000",
          "135345.625000",
          "135348.125000",
          "135350.625000",
          "135353.125000",
          "135355.625000",
          "135358.125000",
          "135400.625000",
          "135403.125000",
          "135405.625000",
          "135408.125000",
          "135410.625000",
          "135413.125000",
          "135415.625000",
          "135418.125000",
          "135420.625000",
          "135423.125000",
          "135425.625000",
          "135428.125000",
          "135430.625000",
          "135433.125000",
          "135435.625000",
          "135438.125000",
          "135440.625000",
          "135443.125000",
          "135445.625000",
          "135448.125000",
          "135450.625000",
          "135453.125000",
          "135455.625000",
          "135458.125000",
          "135500.625000",
          "135503.125000",
          "135505.625000",
          "135508.125000",
          "135510.625000",
          "135513.125000",
          "135515.625000",
          "135518.125000",
          "135520.625000",
          "135523.125000",
          "135525.625000",
          "135528.125000",
          "135530.625000",
          "135533.125000",
          "135535.625000",
          "135538.125000",
          "135540.625000",
          "135543.125000",
          "135545.625000",
          "135548.125000",
          "135550.625000",
          "135552.953000"
        ],
        "InstanceNumber": [
          1,
          2,
          3,
          4,
          5,
          6,
          7,
          8,
          9,
          10,
          11,
          12,
          13,
          14,
          15,
          16,
          17,
          18,
          19,
          20,
          21,
          22,
          23,
          24,
          25,
          26,
          27,
          28,
          29,
          30,
          31,
          32,
          33,
          34,
          35,
          36,
          37,
          38,
          39,
          40,
          41,
          42,
          43,
          44,
          45,
          46,
          47,
          48,
          49,
          50,
          51,
          52,
          53,
          54,
          55,
          56,
          57,
          58,
          59,
          60,
          61,
          62,
          63,
          64,
          65,
          66,
          67,
          68,
          69,
          70,
          71,
          72,
          73,
          74,
          75,
          76,
          77,
          78,
          79,
          80,
          81,
          82,
          83,
          84,
          85,
          86,
          87,
          88,
          89,
          90,
          91,
          92,
          93,
          94,
          95,
          96,
          97,
          98,
          99,
          100,
          101,
          102,
          103,
          104,
          105,
          106,
          107,
          108,
          109,
          110,
          111,
          112,
          113,
          114,
          115,
          116,
          117,
          118,
          119,
          120,
          121,
          122,
          123,
          124,
          125,
          126,
          127,
          128,
          129,
          130,
          131,
          132,
          133,
          134,
          135,
          136,
          137,
          138,
          139,
          140,
          141,
          142,
          143,
          144,
          145,
          146,
          147,
          148,
          149,
          150,
          151,
          152,
          153,
          154,
          155,
          156,
          157,
          158,
          159,
          160,
          161,
          162,
          163,
          164
        ],
        "LargestImagePixelValue": [
          1496,
          1330,
          1307,
          1295,
          1281,
          1286,
          1269,
          1277,
          1285,
          1280,
          1277,
          1263,
          1277,
          1279,
          1322,
          1316,
          1284,
          1310,
          1345,
          1382,
          1334,
          1375,
          1347,
          1269,
          1345,
          1298,
          1323,
          1313,
          1353,
          1274,
          1296,
          1305,
          1309,
          1260,
          1289,
          1384,
          1336,
          1302,
          1341,
          1293,
          1328,
          1242,
          1266,
          1280,
          1399,
          1263,
          1313,
          1276,
          1270,
          1297,
          1472,
          1305,
          1282,
          1281,
          1329,
          1349,
          1342,
          1311,
          1324,
          1360,
          1337,
          1372,
          1343,
          1346,
          1361,
          1331,
          1354,
          1375,
          1351,
          1255,
          1287,
          1392,
          1275,
          1283,
          1334,
          1247,
          1268,
          1314,
          1285,
          1292,
          1287,
          1247,
          1286,
          1191,
          1228,
          1356,
          1406,
          1348,
          1241,
          1298,
          1282,
          1264,
          1361,
          1300,
          1246,
          1220,
          1369,
          1300,
          1320,
          1315,
          1289,
          1311,
          1286,
          1268,
          1273,
          1296,
          1363,
          1287,
          1315,
          1225,
          1284,
          1300,
          1295,
          1260,
          1270,
          1311,
          1258,
          1265,
          1283,
          1269,
          1288,
          1266,
          1309,
          1293,
          1274,
          1265,
          1334,
          1332,
          1270,
          1310,
          1321,
          1278,
          1298,
          1241,
          1268,
          1276,
          1251,
          1343,
          1264,
          1298,
          1203,
          1235,
          1284,
          1349,
          1329,
          1309,
          1320,
          1347,
          1312,
          1338,
          1318,
          1325,
          1266,
          1296,
          1305,
          1337,
          1340,
          1323,
          1345,
          1287,
          1307,
          1348,
          1336,
          1353
        ],
        "WindowCenter": [
          593.0,
          590.0,
          590.0,
          589.0,
          590.0,
          591.0,
          589.0,
          589.0,
          590.0,
          588.0,
          589.0,
          589.0,
          590.0,
          589.0,
          589.0,
          588.0,
          587.0,
          589.0,
          588.0,
          589.0,
          591.0,
          591.0,
          591.0,
          591.0,
          590.0,
          590.0,
          589.0,
          590.0,
          590.0,
          589.0,
          589.0,
          591.0,
          591.0,
          588.0,
          590.0,
          591.0,
          590.0,
          589.0,
          590.0,
          588.0,
          589.0,
          588.0,
          589.0,
          589.0,
          590.0,
          590.0,
          590.0,
          589.0,
          589.0,
          589.0,
          590.0,
          589.0,
          589.0,
          589.0,
          589.0,
          587.0,
          589.0,
          590.0,
          590.0,
          590.0,
          591.0,
          590.0,
          589.0,
          591.0,
          592.0,
          590.0,
          589.0,
          590.0,
          588.0,
          588.0,
          587.0,
          588.0,
          588.0,
          587.0,
          589.0,
          589.0,
          589.0,
          589.0,
          589.0,
          589.0,
          589.0,
          588.0,
          590.0,
          588.0,
          590.0,
          590.0,
          586.0,
          585.0,
          583.0,
          585.0,
          586.0,
          587.0,
          588.0,
          587.0,
          588.0,
          590.0,
          590.0,
          590.0,
          592.0,
          589.0,
          589.0,
          591.0,
          589.0,
          589.0,
          590.0,
          589.0,
          590.0,
          588.0,
          589.0,
          587.0,
          587.0,
          589.0,
          587.0,
          588.0,
          588.0,
          588.0,
          589.0,
          589.0,
          589.0,
          589.0,
          589.0,
          589.0,
          588.0,
          590.0,
          589.0,
          589.0,
          589.0,
          588.0,
          587.0,
          588.0,
          589.0,
          589.0,
          588.0,
          589.0,
          588.0,
          589.0,
          589.0,
          589.0,
          587.0,
          589.0,
          588.0,
          588.0,
          588.0,
          588.0,
          590.0,
          590.0,
          589.0,
          588.0,
          588.0,
