{
  "aor": 0.012169085365853658,
  "aqi": 0.008416991219512195,
  "bids_meta": {
    "AcquisitionMatrixPE": 64,
    "AcquisitionNumber": 1,
    "AcquisitionTime": "14:21:36.930000",
    "BandwidthPerPixelPhaseEncode": 26.483,
    "BaseResolution": 64,
    "BodyPartExamined": "HEAD",
    "CogAtlasID": "TODO",
    "ConversionSoftware": "dcm2niix",
    "ConversionSoftwareVersion": "v1.0.20171017 GCC6.3.0",
    "DerivedVendorReportedEchoSpacing": 0.000590001,
    "DeviceSerialNumber": "35177",
    "DwellTime": 4.1e-06,
    "EchoTime": 0.027,
    "EffectiveEchoSpacing": 0.000590001,
    "FlipAngle": 90,
    "ImageOrientationPatientDICOM": [
      0.998027,
      0.0455957,
      0.0431735,
      -0.056165,
      0.955658,
      0.289074
    ],
    "ImageType": [
      "ORIGINAL",
      "PRIMARY",
      "M",
      "ND",
      "NORM",
      "MOSAIC"
    ],
    "InPlanePhaseEncodingDirectionDICOM": "COL",
    "InstitutionAddress": "Scott_Ave._4525_St._Louis_MO_US_63110",
    "InstitutionName": "Washington_University",
    "InstitutionalDepartmentName": "Department",
    "MRAcquisitionType": "2D",
    "MagneticFieldStrength": 3,
    "Manufacturer": "Siemens",
    "ManufacturersModelName": "TrioTim",
    "Modality": "MR",
    "PartialFourier": 1,
    "PatientPosition": "HFS",
    "PercentPhaseFOV": 100,
    "PhaseEncodingDirection": "j-",
    "PhaseEncodingSteps": 64,
    "PhaseResolution": 1,
    "PixelBandwidth": 1905,
    "ProcedureStepDescription": "head_GREENE",
    "ProtocolName": "ep2d_bold_rest2",
    "PulseSequenceDetails": "%SiemensSeq%_ep2d_bold",
    "ReceiveCoilName": "HeadMatrix",
    "ReconMatrixPE": 64,
    "RepetitionTime": 2.5,
    "SAR": 0.15792,
    "ScanOptions": "FS",
    "ScanningSequence": "EP",
    "SequenceName": "_epfid2d1_64",
    "SequenceVariant": "SK",
    "SeriesDescription": "ep2d_bold_rest2",
    "SeriesNumber": 10,
    "ShimSetting": [
      -212,
      -19588,
      8007,
      441,
      122,
      -326,
      -139,
      -25
    ],
    "SliceThickness": 4,
    "SliceTiming": [
      1.255,
      0,
      1.3325,
      0.0775,
      1.41,
      0.155,
      1.49,
      0.235,
      1.5675,
      0.3125,
      1.645,
      0.3925,
      1.725,
      0.47,
      1.8025,
      0.5475,
      1.8825,
      0.6275,
      1.96,
      0.705,
      2.0375,
      0.7825,
      2.1175,
      0.8625,
      2.195,
      0.94,
      2.2725,
      1.0175,
      2.3525,
      1.0975,
      2.43,
      1.175
    ],
    "SoftwareVersions": "syngo_MR_B17",
    "SpacingBetweenSlices": 4,
    "StationName": "MRC35177",
    "TaskName": "restfixationnofeedback",
    "TotalReadoutTime": 0.0371701,
    "TxRefAmp": 343.009,
    "dataset": "ds000256",
    "dcmmeta_affine": [
      [
        -3.9921064376831055,
        -0.22466008365154266,
        0.11231432110071182,
        136.10104370117188
      ],
      [
        -0.18238267302513123,
        3.8226311206817627,
        1.163712739944458,
        -115.7879638671875
      ],
      [
        0.17269401252269745,
        -1.1562951803207397,
        3.825331211090088,
        13.105631828308105
      ],
      [
        0.0,
        0.0,
        0.0,
        1.0
      ]
    ],
    "dcmmeta_reorient_transform": [
      [
        0.0,
        -1.0,
        0.0,
        63.0
      ],
      [
        1.0,
        0.0,
        0.0,
        0.0
      ],
      [
        0.0,
        0.0,
        1.0,
        0.0
      ],
      [
        0.0,
        0.0,
        0.0,
        1.0
      ]
    ],
    "dcmmeta_shape": [
      64,
      64,
      32,
      164
    ],
    "dcmmeta_slice_dim": 2,
    "dcmmeta_version": 0.6,
    "global": {
      "const": {
        "AccessionNumber": ".",
        "AcquisitionMatrix": [
          64,
          0,
          0,
          64
        ],
        "AngioFlag": "N",
        "BitsAllocated": 16,
        "BitsStored": 12,
        "BodyPartExamined": "HEAD",
        "Columns": 384,
        "DeidentificationMethodCodeSequence": [
          {
            "CodeMeaning": "XNAT Edit Script",
            "CodeValue": "625500",
            "CodingSchemeDesignator": "XNAT",
            "CodingSchemeVersion": "0.1"
          }
        ],
        "EchoNumbers": 1,
        "EchoTime": 27.0,
        "EchoTrainLength": 1,
        "FlipAngle": 90.0,
        "HighBit": 11,
        "ImageOrientationPatient": [
          0.99802659465083,
          0.04559566974834,
          0.04317350194114,
          -0.0561650222241,
          0.95565779658628,
          0.28907380736141
        ],
        "ImagePositionPatient": [
          -724.73886697266,
          -765.84002010473,
          -272.37924569341
        ],
        "ImageType": [
          "ORIGINAL",
          "PRIMARY",
          "M",
          "ND",
          "NORM",
          "MOSAIC"
        ],
        "ImagedNucleus": "1H",
        "ImagingFrequency": 123.255868,
        "InPlanePhaseEncodingDirection": "COL",
        "MRAcquisitionType": "2D",
        "MagneticFieldStrength": 3.0,
        "Manufacturer": "SIEMENS",
        "ManufacturerModelName": "TrioTim",
        "Modality": "MR",
        "NumberOfAverages": 1.0,
        "NumberOfPhaseEncodingSteps": 64,
        "PercentPhaseFieldOfView": 100.0,
        "PercentSampling": 100.0,
        "PerformedProcedureStepStartTime": "133256.609000",
        "PhotometricInterpretation": "MONOCHROME2",
        "PixelBandwidth": 1905.0,
        "PixelRepresentation": 0,
        "PixelSpacing": [
          4.0,
          4.0
        ],
        "PositionReferenceIndicator": "",
        "ProtocolName": "ep2d_bold_rest2",
        "RepetitionTime": 2500.0,
        "Rows": 384,
        "SAR": 0.15792030170501,
        "SamplesPerPixel": 1,
        "ScanOptions": "FS",
        "ScanningSequence": "EP",
        "SequenceName": "*epfid2d1_64",
        "SequenceVariant": "SK",
        "SeriesDescription": "ep2d_bold_rest2",
        "SeriesNumber": 10,
        "SeriesTime": "142139.390000",
        "SliceLocation": -17.331113037268,
        "SliceThickness": 4.0,
        "SmallestImagePixelValue": 0,
        "SoftwareVersions": "syngo MR B17",
        "SpacingBetweenSlices": 4.0000001477151,
        "SpecificCharacterSet": "ISO_IR 100",
        "StudyID": "1",
        "StudyTime": "133256.562000",
        "TransmitCoilName": "Body",
        "VariableFlipAngleFlag": "N",
        "WindowCenterWidthExplanation": "Algo1",
        "dBdt": 0.0
      },
      "slices": {}
    },
    "modality": "bold",
    "subject_id": "CTS225",
    "task_id": "restfixationnofeedback",
    "time": {
      "samples": {
        "AcquisitionNumber": [
          1,
          2,
          3,
          4,
          5,
          6,
          7,
          8,
          9,
          10,
          11,
          12,
          13,
          14,
          15,
          16,
          17,
          18,
          19,
          20,
          21,
          22,
          23,
          24,
          25,
          26,
          27,
          28,
          29,
          30,
          31,
          32,
          33,
          34,
          35,
          36,
          37,
          38,
          39,
          40,
          41,
          42,
          43,
          44,
          45,
          46,
          47,
          48,
          49,
          50,
          51,
          52,
          53,
          54,
          55,
          56,
          57,
          58,
          59,
          60,
          61,
          62,
          63,
          64,
          65,
          66,
          67,
          68,
          69,
          70,
          71,
          72,
          73,
          74,
          75,
          76,
          77,
          78,
          79,
          80,
          81,
          82,
          83,
          84,
          85,
          86,
          87,
          88,
          89,
          90,
          91,
          92,
          93,
          94,
          95,
          96,
          97,
          98,
          99,
          100,
          101,
          102,
          103,
          104,
          105,
          106,
          107,
          108,
          109,
          110,
          111,
          112,
          113,
          114,
          115,
          116,
          117,
          118,
          119,
          120,
          121,
          122,
          123,
          124,
          125,
          126,
          127,
          128,
          129,
          130,
          131,
          132,
          133,
          134,
          135,
          136,
          137,
          138,
          139,
          140,
          141,
          142,
          143,
          144,
          145,
          146,
          147,
          148,
          149,
          150,
          151,
          152,
          153,
          154,
          155,
          156,
          157,
          158,
          159,
          160,
          161,
          162,
          163,
          164
        ],
        "AcquisitionTime": [
          "142136.930000",
          "142139.440000",
          "142141.950000",
          "142144.460000",
          "142146.970000",
          "142149.480000",
          "142151.990000",
          "142154.500000",
          "142157.010000",
          "142159.520000",
          "142202.030000",
          "142204.540000",
          "142207.050000",
          "142209.560000",
          "142212.070000",
          "142214.580000",
          "142217.090000",
          "142219.600000",
          "142222.110000",
          "142224.620000",
          "142227.130000",
          "142229.640000",
          "142232.150000",
          "142234.660000",
          "142237.170000",
          "142239.680000",
          "142242.190000",
          "142244.700000",
          "142247.210000",
          "142249.720000",
          "142252.230000",
          "142254.740000",
          "142257.250000",
          "142259.760000",
          "142302.270000",
          "142304.780000",
          "142307.290000",
          "142309.800000",
          "142312.310000",
          "142314.820000",
          "142317.330000",
          "142319.840000",
          "142322.350000",
          "142324.860000",
          "142327.370000",
          "142329.880000",
          "142332.390000",
          "142334.900000",
          "142337.410000",
          "142339.920000",
          "142342.430000",
          "142344.940000",
          "142347.450000",
          "142349.960000",
          "142352.470000",
          "142354.980000",
          "142357.490000",
          "142400.000000",
          "142402.512500",
          "142405.022500",
          "142407.532500",
          "142410.042500",
          "142412.552500",
          "142415.062500",
          "142417.572500",
          "142420.082500",
          "142422.592500",
          "142425.102500",
          "142427.612500",
          "142430.122500",
          "142432.632500",
          "142435.142500",
          "142437.652500",
          "142440.162500",
          "142442.672500",
          "142445.182500",
          "142447.692500",
          "142450.202500",
          "142452.712500",
          "142455.222500",
          "142457.732500",
          "142500.242500",
          "142502.752500",
          "142505.262500",
          "142507.772500",
          "142510.282500",
          "142512.792500",
          "142515.302500",
          "142517.812500",
          "142520.322500",
          "142522.832500",
          "142525.342500",
          "142527.852500",
          "142530.362500",
          "142532.872500",
          "142535.382500",
          "142537.892500",
          "142540.402500",
          "142542.912500",
          "142545.422500",
          "142547.932500",
          "142550.442500",
          "142552.952500",
          "142555.462500",
          "142557.972500",
          "142600.482500",
          "142602.992500",
          "142605.502500",
          "142608.012500",
          "142610.522500",
          "142613.032500",
          "142615.542500",
          "142618.052500",
          "142620.562500",
          "142623.072500",
          "142625.582500",
          "142628.092500",
          "142630.602500",
          "142633.112500",
          "142635.622500",
          "142638.132500",
          "142640.645000",
          "142643.155000",
          "142645.665000",
          "142648.175000",
          "142650.685000",
          "142653.195000",
          "142655.705000",
          "142658.215000",
          "142700.725000",
          "142703.235000",
          "142705.745000",
          "142708.255000",
          "142710.765000",
          "142713.275000",
          "142715.785000",
          "142718.295000",
          "142720.805000",
          "142723.315000",
          "142725.825000",
          "142728.335000",
          "142730.845000",
          "142733.355000",
          "142735.865000",
          "142738.375000",
          "142740.885000",
          "142743.395000",
          "142745.905000",
          "142748.415000",
          "142750.925000",
          "142753.435000",
          "142755.945000",
          "142758.455000",
          "142800.965000",
          "142803.475000",
          "142805.985000",
          "142808.495000",
          "142811.005000",
          "142813.515000",
          "142816.025000",
          "142818.535000",
          "142821.045000",
          "142823.555000",
          "142826.065000"
        ],
        "ContentTime": [
          "142139.390000",
          "142141.875000",
          "142144.375000",
          "142146.875000",
          "142149.375000",
          "142151.875000",
          "142154.375000",
          "142156.875000",
          "142159.375000",
          "142201.875000",
          "142204.375000",
          "142206.875000",
          "142209.375000",
          "142211.875000",
          "142214.375000",
          "142216.875000",
          "142219.375000",
          "142221.875000",
          "142224.375000",
          "142226.875000",
          "142229.375000",
          "142231.875000",
          "142234.375000",
          "142236.875000",
          "142239.375000",
          "142241.875000",
          "142244.375000",
          "142246.875000",
          "142249.375000",
          "142251.875000",
          "142254.375000",
          "142256.875000",
          "142259.375000",
          "142301.875000",
          "142304.375000",
          "142306.875000",
          "142309.375000",
          "142311.875000",
          "142314.375000",
          "142316.875000",
          "142319.375000",
          "142321.875000",
          "142324.375000",
          "142326.875000",
          "142329.375000",
          "142331.875000",
          "142334.375000",
          "142336.875000",
          "142339.375000",
          "142341.875000",
          "142344.375000",
          "142346.875000",
          "142349.375000",
          "142351.875000",
          "142354.375000",
          "142356.875000",
          "142359.375000",
          "142401.875000",
          "142404.375000",
          "142406.875000",
          "142409.375000",
          "142411.875000",
          "142414.375000",
          "142416.875000",
          "142419.375000",
          "142421.875000",
          "142424.375000",
          "142426.875000",
          "142429.375000",
          "142431.875000",
          "142434.375000",
          "142436.875000",
          "142439.375000",
          "142441.875000",
          "142444.375000",
          "142446.875000",
          "142449.375000",
          "142451.875000",
          "142454.375000",
          "142456.875000",
          "142459.375000",
          "142501.875000",
          "142504.375000",
          "142506.875000",
          "142509.375000",
          "142511.875000",
          "142514.375000",
          "142516.875000",
          "142519.375000",
          "142521.875000",
          "142524.375000",
          "142526.875000",
          "142529.375000",
          "142531.875000",
          "142534.375000",
          "142536.875000",
          "142539.375000",
          "142541.875000",
          "142544.375000",
          "142546.875000",
          "142549.375000",
          "142551.875000",
          "142554.375000",
          "142556.875000",
          "142559.375000",
          "142601.875000",
          "142604.375000",
          "142606.875000",
          "142609.375000",
          "142611.875000",
          "142614.375000",
          "142616.875000",
          "142619.375000",
          "142621.875000",
          "142624.375000",
          "142626.875000",
          "142629.375000",
          "142631.875000",
          "142634.375000",
          "142636.875000",
          "142639.375000",
          "142641.875000",
          "142644.375000",
          "142646.875000",
          "142649.375000",
          "142651.875000",
          "142654.375000",
          "142656.875000",
          "142659.375000",
          "142701.875000",
          "142704.375000",
          "142706.875000",
          "142709.375000",
          "142711.875000",
          "142714.375000",
          "142716.875000",
          "142719.375000",
          "142721.875000",
          "142724.375000",
          "142726.875000",
          "142729.375000",
          "142731.875000",
          "142734.375000",
          "142736.875000",
          "142739.375000",
          "142741.875000",
          "142744.375000",
          "142746.875000",
          "142749.375000",
          "142751.875000",
          "142754.375000",
          "142756.875000",
          "142759.375000",
          "142801.875000",
          "142804.375000",
          "142806.875000",
          "142809.375000",
          "142811.875000",
          "142814.375000",
          "142816.875000",
          "142819.375000",
          "142821.875000",
          "142824.375000",
          "142826.718000"
        ],
        "InstanceCreationTime": [
          "142139.390000",
          "142141.875000",
          "142144.375000",
          "142146.875000",
          "142149.375000",
          "142151.875000",
          "142154.375000",
          "142156.875000",
          "142159.375000",
          "142201.875000",
          "142204.375000",
          "142206.875000",
          "142209.375000",
          "142211.875000",
          "142214.375000",
          "142216.875000",
          "142219.375000",
          "142221.875000",
          "142224.375000",
          "142226.875000",
          "142229.375000",
          "142231.875000",
          "142234.375000",
          "142236.875000",
          "142239.375000",
          "142241.875000",
          "142244.375000",
          "142246.875000",
          "142249.375000",
          "142251.875000",
          "142254.375000",
          "142256.875000",
          "142259.375000",
          "142301.875000",
          "142304.375000",
          "142306.875000",
          "142309.375000",
          "142311.875000",
          "142314.375000",
          "142316.875000",
          "142319.375000",
          "142321.875000",
          "142324.375000",
          "142326.875000",
          "142329.375000",
          "142331.875000",
          "142334.375000",
          "142336.875000",
          "142339.375000",
          "142341.875000",
          "142344.375000",
          "142346.875000",
          "142349.375000",
          "142351.875000",
          "142354.375000",
          "142356.875000",
          "142359.375000",
          "142401.875000",
          "142404.375000",
          "142406.875000",
          "142409.375000",
          "142411.875000",
          "142414.375000",
          "142416.875000",
          "142419.375000",
          "142421.875000",
          "142424.375000",
          "142426.875000",
          "142429.375000",
          "142431.875000",
          "142434.375000",
          "142436.875000",
          "142439.375000",
          "142441.875000",
          "142444.375000",
          "142446.875000",
          "142449.375000",
          "142451.875000",
          "142454.375000",
          "142456.875000",
          "142459.375000",
          "142501.875000",
          "142504.375000",
          "142506.875000",
          "142509.375000",
          "142511.875000",
          "142514.375000",
          "142516.875000",
          "142519.375000",
          "142521.875000",
          "142524.375000",
          "142526.875000",
          "142529.375000",
          "142531.875000",
          "142534.375000",
          "142536.875000",
          "142539.375000",
          "142541.875000",
          "142544.375000",
          "142546.875000",
          "142549.375000",
          "142551.875000",
          "142554.375000",
          "142556.875000",
          "142559.375000",
          "142601.875000",
          "142604.375000",
          "142606.875000",
          "142609.375000",
          "142611.875000",
          "142614.375000",
          "142616.875000",
          "142619.375000",
          "142621.875000",
          "142624.375000",
          "142626.875000",
          "142629.375000",
          "142631.875000",
          "142634.375000",
          "142636.875000",
          "142639.375000",
          "142641.875000",
          "142644.375000",
          "142646.875000",
          "142649.375000",
          "142651.875000",
          "142654.375000",
          "142656.875000",
          "142659.375000",
          "142701.875000",
          "142704.375000",
          "142706.875000",
          "142709.375000",
          "142711.875000",
          "142714.375000",
          "142716.875000",
          "142719.375000",
          "142721.875000",
          "142724.375000",
          "142726.875000",
          "142729.375000",
          "142731.875000",
          "142734.375000",
          "142736.875000",
          "142739.375000",
          "142741.875000",
          "142744.375000",
          "142746.875000",
          "142749.375000",
          "142751.875000",
          "142754.375000",
          "142756.875000",
          "142759.375000",
          "142801.875000",
          "142804.375000",
          "142806.875000",
          "142809.375000",
          "142811.875000",
          "142814.375000",
          "142816.875000",
          "142819.375000",
          "142821.875000",
          "142824.375000",
          "142826.718000"
        ],
        "InstanceNumber": [
          1,
          2,
          3,
          4,
          5,
          6,
          7,
          8,
          9,
          10,
          11,
          12,
          13,
          14,
          15,
          16,
          17,
          18,
          19,
          20,
          21,
          22,
          23,
          24,
          25,
          26,
          27,
          28,
          29,
          30,
          31,
          32,
          33,
          34,
          35,
          36,
          37,
          38,
          39,
          40,
          41,
          42,
          43,
          44,
          45,
          46,
          47,
          48,
          49,
          50,
          51,
          52,
          53,
          54,
          55,
          56,
          57,
          58,
          59,
          60,
          61,
          62,
          63,
          64,
          65,
          66,
          67,
          68,
          69,
          70,
          71,
          72,
          73,
          74,
          75,
          76,
          77,
          78,
          79,
          80,
          81,
          82,
          83,
          84,
          85,
          86,
          87,
          88,
          89,
          90,
          91,
          92,
          93,
          94,
          95,
          96,
          97,
          98,
          99,
          100,
          101,
          102,
          103,
          104,
          105,
          106,
          107,
          108,
          109,
          110,
          111,
          112,
          113,
          114,
          115,
          116,
          117,
          118,
          119,
          120,
          121,
          122,
          123,
          124,
          125,
          126,
          127,
          128,
          129,
          130,
          131,
          132,
          133,
          134,
          135,
          136,
          137,
          138,
          139,
          140,
          141,
          142,
          143,
          144,
          145,
          146,
          147,
          148,
          149,
          150,
          151,
          152,
          153,
          154,
          155,
          156,
          157,
          158,
          159,
          160,
          161,
          162,
          163,
          164
        ],
        "LargestImagePixelValue": [
          1303,
          1196,
          1199,
          1226,
          1232,
          1447,
          1403,
          1206,
          1211,
          1180,
          1184,
          1201,
          1201,
          1239,
          1255,
          1299,
          1236,
          1196,
          1199,
          1227,
          1263,
          1242,
          1271,
          1235,
          1207,
          1373,
          1257,
          1242,
          1447,
          1208,
          1204,
          1268,
          1287,
          1223,
          1244,
          1248,
          1314,
          1317,
          1257,
          1229,
          1257,
          1286,
          1291,
          1282,
          1292,
          1294,
          1317,
          1284,
          1303,
          1309,
          1310,
          1245,
          1268,
          1240,
          1271,
          1251,
          1279,
          1199,
          1424,
          1234,
          1292,
          1307,
          1424,
          1326,
          1272,
          1247,
          1221,
          1204,
          1243,
          1265,
          1364,
          1248,
          1318,
          1235,
          1255,
          1254,
          1278,
          1462,
          1415,
          1250,
          1290,
          1287,
          1235,
          1216,
          1295,
          1358,
          1279,
          1259,
          1430,
          1252,
          1308,
          1281,
          1243,
          1290,
          1293,
          1284,
          1294,
          1321,
          1229,
          1313,
          1316,
          1274,
          1376,
          1348,
          1333,
          1345,
          1343,
          1345,
          1266,
          1218,
          1286,
          1335,
          1331,
          1265,
          1252,
          1333,
          1279,
          1381,
          1365,
          1243,
          1342,
          1223,
          1286,
          1319,
          1367,
          1229,
          1231,
          1230,
          1272,
          1346,
          1315,
          1260,
          1344,
          1327,
          1238,
          1293,
          1294,
          1350,
          1256,
          1235,
          1293,
          1259,
          1293,
          1242,
          1230,
          1315,
          1280,
          1258,
          1285,
          1296,
          1279,
          1294,
          1315,
          1261,
          1293,
          1256,
          1322,
          1358,
          1346,
          1341,
          1291,
          1469,
          1676,
          1622
        ],
        "WindowCenter": [
          589.0,
          588.0,
          588.0,
          588.0,
          588.0,
          589.0,
          588.0,
          586.0,
          587.0,
          586.0,
          587.0,
          587.0,
          587.0,
          587.0,
          587.0,
          587.0,
          588.0,
          587.0,
          587.0,
          588.0,
          588.0,
          587.0,
          588.0,
          589.0,
          587.0,
          588.0,
          586.0,
          584.0,
          583.0,
          582.0,
          582.0,
          585.0,
          585.0,
          587.0,
          586.0,
          587.0,
          583.0,
          588.0,
          589.0,
          588.0,
          588.0,
          588.0,
          588.0,
          588.0,
          588.0,
          587.0,
          589.0,
          588.0,
          587.0,
          588.0,
          588.0,
          587.0,
          587.0,
          587.0,
          587.0,
          587.0,
          588.0,
          586.0,
          589.0,
          586.0,
          587.0,
          589.0,
          589.0,
          588.0,
          587.0,
          587.0,
          588.0,
          587.0,
          588.0,
          588.0,
          588.0,
          588.0,
          588.0,
          586.0,
          587.0,
          588.0,
          588.0,
          589.0,
          588.0,
          587.0,
          587.0,
          587.0,
          588.0,
          586.0,
          588.0,
          589.0,
          588.0,
          589.0,
          589.0,
          587.0,
          587.0,
          586.0,
          586.0,
          588.0,
          588.0,
          588.0,
          588.0,
          587.0,
          586.0,
          588.0,
          587.0,
          587.0,
          588.0,
          587.0,
          587.0,
          586.0,
          587.0,
          586.0,
          586.0,
          585.0,
          586.0,
          587.0,
          588.0,
          586.0,
          586.0,
          588.0,
          586.0,
          585.0,
          586.0,
          585.0,
          585.0,
          585.0,
          586.0,
          587.0,
          587.0,
          587.0,
          586.0,
          586.0,
          586.0,
          587.0,
          586.0,
          587.0,
          587.0,
          586.0,
          585.0,
          587.0,
          587.0,
          588.0,
          585.0,
          586.0,
          587.0,
          587.0,
          588.0,
          587.0,
          587.0,
          588.0,
          587.0,
          587.0,
          587.0,
          588.0,
