{
  "aor": 0.004690920245398774,
  "aqi": 0.0049375242331288335,
  "bids_meta": {
    "AcquisitionMatrixPE": 64,
    "AcquisitionNumber": 1,
    "AcquisitionTime": "13:40:33.050000",
    "BandwidthPerPixelPhaseEncode": 26.483,
    "BaseResolution": 64,
    "BodyPartExamined": "HEAD",
    "CogAtlasID": "TODO",
    "ConversionSoftware": "dcm2niix",
    "ConversionSoftwareVersion": "v1.0.20171017 GCC6.3.0",
    "DerivedVendorReportedEchoSpacing": 0.000590001,
    "DeviceSerialNumber": "35177",
    "DwellTime": 4.1e-06,
    "EchoTime": 0.027,
    "EffectiveEchoSpacing": 0.000590001,
    "FlipAngle": 90,
    "ImageOrientationPatientDICOM": [
      0.998027,
      0.0455957,
      0.0431735,
      -0.056165,
      0.955658,
      0.289074
    ],
    "ImageType": [
      "ORIGINAL",
      "PRIMARY",
      "M",
      "ND",
      "NORM",
      "MOSAIC"
    ],
    "InPlanePhaseEncodingDirectionDICOM": "COL",
    "InstitutionAddress": "Scott_Ave._4525_St._Louis_MO_US_63110",
    "InstitutionName": "Washington_University",
    "InstitutionalDepartmentName": "Department",
    "MRAcquisitionType": "2D",
    "MagneticFieldStrength": 3,
    "Manufacturer": "Siemens",
    "ManufacturersModelName": "TrioTim",
    "Modality": "MR",
    "PartialFourier": 1,
    "PatientPosition": "HFS",
    "PercentPhaseFOV": 100,
    "PhaseEncodingDirection": "j-",
    "PhaseEncodingSteps": 64,
    "PhaseResolution": 1,
    "PixelBandwidth": 1905,
    "ProcedureStepDescription": "head_GREENE",
    "ProtocolName": "ep2d_bold_rest1",
    "PulseSequenceDetails": "%SiemensSeq%_ep2d_bold",
    "ReceiveCoilName": "HeadMatrix",
    "ReconMatrixPE": 64,
    "RepetitionTime": 2.5,
    "SAR": 0.15792,
    "ScanOptions": "FS",
    "ScanningSequence": "EP",
    "SequenceName": "_epfid2d1_64",
    "SequenceVariant": "SK",
    "SeriesDescription": "ep2d_bold_rest1",
    "SeriesNumber": 5,
    "ShimSetting": [
      -212,
      -19588,
      8007,
      441,
      122,
      -326,
      -139,
      -25
    ],
    "SliceThickness": 4,
    "SliceTiming": [
      1.255,
      0,
      1.3325,
      0.0775,
      1.4125,
      0.1575,
      1.49,
      0.235,
      1.57,
      0.315,
      1.6475,
      0.3925,
      1.725,
      0.47,
      1.805,
      0.55,
      1.8825,
      0.6275,
      1.96,
      0.705,
      2.04,
      0.785,
      2.1175,
      0.8625,
      2.195,
      0.9425,
      2.275,
      1.02,
      2.3525,
      1.0975,
      2.4325,
      1.1775
    ],
    "SoftwareVersions": "syngo_MR_B17",
    "SpacingBetweenSlices": 4,
    "StationName": "MRC35177",
    "TaskName": "restbaseline",
    "TotalReadoutTime": 0.0371701,
    "TxRefAmp": 343.009,
    "dataset": "ds000256",
    "dcmmeta_affine": [
      [
        -3.9921064376831055,
        -0.22466008365154266,
        0.11231432110071182,
        136.10104370117188
      ],
      [
        -0.18238267302513123,
        3.8226311206817627,
        1.163712739944458,
        -115.7879638671875
      ],
      [
        0.17269401252269745,
        -1.1562951803207397,
        3.825331211090088,
        13.105631828308105
      ],
      [
        0.0,
        0.0,
        0.0,
        1.0
      ]
    ],
    "dcmmeta_reorient_transform": [
      [
        0.0,
        -1.0,
        0.0,
        63.0
      ],
      [
        1.0,
        0.0,
        0.0,
        0.0
      ],
      [
        0.0,
        0.0,
        1.0,
        0.0
      ],
      [
        0.0,
        0.0,
        0.0,
        1.0
      ]
    ],
    "dcmmeta_shape": [
      64,
      64,
      32,
      164
    ],
    "dcmmeta_slice_dim": 2,
    "dcmmeta_version": 0.6,
    "global": {
      "const": {
        "AccessionNumber": ".",
        "AcquisitionMatrix": [
          64,
          0,
          0,
          64
        ],
        "AngioFlag": "N",
        "BitsAllocated": 16,
        "BitsStored": 12,
        "BodyPartExamined": "HEAD",
        "Columns": 384,
        "DeidentificationMethodCodeSequence": [
          {
            "CodeMeaning": "XNAT Edit Script",
            "CodeValue": "625500",
            "CodingSchemeDesignator": "XNAT",
            "CodingSchemeVersion": "0.1"
          }
        ],
        "EchoNumbers": 1,
        "EchoTime": 27.0,
        "EchoTrainLength": 1,
        "FlipAngle": 90.0,
        "HighBit": 11,
        "ImageOrientationPatient": [
          0.99802659465083,
          0.04559566974834,
          0.04317350194114,
          -0.0561650222241,
          0.95565779658628,
          0.28907380736141
        ],
        "ImagePositionPatient": [
          -724.73886697266,
          -765.84002010473,
          -272.37924569341
        ],
        "ImageType": [
          "ORIGINAL",
          "PRIMARY",
          "M",
          "ND",
          "NORM",
          "MOSAIC"
        ],
        "ImagedNucleus": "1H",
        "ImagingFrequency": 123.255864,
        "InPlanePhaseEncodingDirection": "COL",
        "MRAcquisitionType": "2D",
        "MagneticFieldStrength": 3.0,
        "Manufacturer": "SIEMENS",
        "ManufacturerModelName": "TrioTim",
        "Modality": "MR",
        "NumberOfAverages": 1.0,
        "NumberOfPhaseEncodingSteps": 64,
        "PercentPhaseFieldOfView": 100.0,
        "PercentSampling": 100.0,
        "PerformedProcedureStepStartTime": "133256.609000",
        "PhotometricInterpretation": "MONOCHROME2",
        "PixelBandwidth": 1905.0,
        "PixelRepresentation": 0,
        "PixelSpacing": [
          4.0,
          4.0
        ],
        "PositionReferenceIndicator": "",
        "ProtocolName": "ep2d_bold_rest1",
        "RepetitionTime": 2500.0,
        "Rows": 384,
        "SAR": 0.15792030170501,
        "SamplesPerPixel": 1,
        "ScanOptions": "FS",
        "ScanningSequence": "EP",
        "SequenceName": "*epfid2d1_64",
        "SequenceVariant": "SK",
        "SeriesDescription": "ep2d_bold_rest1",
        "SeriesNumber": 5,
        "SeriesTime": "134035.453000",
        "SliceLocation": -17.331113037268,
        "SliceThickness": 4.0,
        "SmallestImagePixelValue": 0,
        "SoftwareVersions": "syngo MR B17",
        "SpacingBetweenSlices": 4.0000001477151,
        "SpecificCharacterSet": "ISO_IR 100",
        "StudyID": "1",
        "StudyTime": "133256.562000",
        "TransmitCoilName": "Body",
        "VariableFlipAngleFlag": "N",
        "WindowCenterWidthExplanation": "Algo1",
        "dBdt": 0.0
      },
      "slices": {}
    },
    "modality": "bold",
    "subject_id": "CTS225",
    "task_id": "restbaseline",
    "time": {
      "samples": {
        "AcquisitionNumber": [
          1,
          2,
          3,
          4,
          5,
          6,
          7,
          8,
          9,
          10,
          11,
          12,
          13,
          14,
          15,
          16,
          17,
          18,
          19,
          20,
          21,
          22,
          23,
          24,
          25,
          26,
          27,
          28,
          29,
          30,
          31,
          32,
          33,
          34,
          35,
          36,
          37,
          38,
          39,
          40,
          41,
          42,
          43,
          44,
          45,
          46,
          47,
          48,
          49,
          50,
          51,
          52,
          53,
          54,
          55,
          56,
          57,
          58,
          59,
          60,
          61,
          62,
          63,
          64,
          65,
          66,
          67,
          68,
          69,
          70,
          71,
          72,
          73,
          74,
          75,
          76,
          77,
          78,
          79,
          80,
          81,
          82,
          83,
          84,
          85,
          86,
          87,
          88,
          89,
          90,
          91,
          92,
          93,
          94,
          95,
          96,
          97,
          98,
          99,
          100,
          101,
          102,
          103,
          104,
          105,
          106,
          107,
          108,
          109,
          110,
          111,
          112,
          113,
          114,
          115,
          116,
          117,
          118,
          119,
          120,
          121,
          122,
          123,
          124,
          125,
          126,
          127,
          128,
          129,
          130,
          131,
          132,
          133,
          134,
          135,
          136,
          137,
          138,
          139,
          140,
          141,
          142,
          143,
          144,
          145,
          146,
          147,
          148,
          149,
          150,
          151,
          152,
          153,
          154,
          155,
          156,
          157,
          158,
          159,
          160,
          161,
          162,
          163,
          164
        ],
        "AcquisitionTime": [
          "134033.050000",
          "134035.560000",
          "134038.070000",
          "134040.580000",
          "134043.090000",
          "134045.600000",
          "134048.110000",
          "134050.620000",
          "134053.130000",
          "134055.640000",
          "134058.150000",
          "134100.660000",
          "134103.170000",
          "134105.680000",
          "134108.190000",
          "134110.700000",
          "134113.210000",
          "134115.720000",
          "134118.230000",
          "134120.740000",
          "134123.250000",
          "134125.760000",
          "134128.270000",
          "134130.780000",
          "134133.290000",
          "134135.800000",
          "134138.310000",
          "134140.820000",
          "134143.330000",
          "134145.842500",
          "134148.352500",
          "134150.862500",
          "134153.372500",
          "134155.882500",
          "134158.392500",
          "134200.902500",
          "134203.412500",
          "134205.922500",
          "134208.432500",
          "134210.942500",
          "134213.452500",
          "134215.962500",
          "134218.472500",
          "134220.982500",
          "134223.492500",
          "134226.002500",
          "134228.512500",
          "134231.022500",
          "134233.532500",
          "134236.042500",
          "134238.552500",
          "134241.062500",
          "134243.572500",
          "134246.082500",
          "134248.592500",
          "134251.102500",
          "134253.612500",
          "134256.122500",
          "134258.632500",
          "134301.142500",
          "134303.652500",
          "134306.162500",
          "134308.672500",
          "134311.182500",
          "134313.692500",
          "134316.202500",
          "134318.712500",
          "134321.222500",
          "134323.732500",
          "134326.242500",
          "134328.752500",
          "134331.262500",
          "134333.772500",
          "134336.282500",
          "134338.792500",
          "134341.302500",
          "134343.812500",
          "134346.322500",
          "134348.832500",
          "134351.342500",
          "134353.852500",
          "134356.362500",
          "134358.872500",
          "134401.382500",
          "134403.892500",
          "134406.402500",
          "134408.912500",
          "134411.422500",
          "134413.932500",
          "134416.442500",
          "134418.952500",
          "134421.462500",
          "134423.975000",
          "134426.485000",
          "134428.995000",
          "134431.505000",
          "134434.015000",
          "134436.525000",
          "134439.035000",
          "134441.545000",
          "134444.055000",
          "134446.565000",
          "134449.075000",
          "134451.585000",
          "134454.095000",
          "134456.605000",
          "134459.115000",
          "134501.625000",
          "134504.135000",
          "134506.645000",
          "134509.155000",
          "134511.665000",
          "134514.175000",
          "134516.685000",
          "134519.195000",
          "134521.705000",
          "134524.215000",
          "134526.725000",
          "134529.235000",
          "134531.745000",
          "134534.255000",
          "134536.765000",
          "134539.275000",
          "134541.785000",
          "134544.295000",
          "134546.805000",
          "134549.315000",
          "134551.825000",
          "134554.335000",
          "134556.845000",
          "134559.355000",
          "134601.865000",
          "134604.375000",
          "134606.885000",
          "134609.395000",
          "134611.905000",
          "134614.415000",
          "134616.925000",
          "134619.435000",
          "134621.945000",
          "134624.455000",
          "134626.965000",
          "134629.475000",
          "134631.985000",
          "134634.495000",
          "134637.005000",
          "134639.515000",
          "134642.025000",
          "134644.535000",
          "134647.045000",
          "134649.555000",
          "134652.065000",
          "134654.575000",
          "134657.085000",
          "134659.597500",
          "134702.107500",
          "134704.617500",
          "134707.127500",
          "134709.637500",
          "134712.147500",
          "134714.657500",
          "134717.167500",
          "134719.677500",
          "134722.187500"
        ],
        "ContentTime": [
          "134035.453000",
          "134037.937000",
          "134040.437000",
          "134042.937000",
          "134045.437000",
          "134047.937000",
          "134050.437000",
          "134052.937000",
          "134055.437000",
          "134057.937000",
          "134100.437000",
          "134102.937000",
          "134105.437000",
          "134107.937000",
          "134110.437000",
          "134112.937000",
          "134115.437000",
          "134117.937000",
          "134120.437000",
          "134122.937000",
          "134125.437000",
          "134127.937000",
          "134130.437000",
          "134132.937000",
          "134135.437000",
          "134137.937000",
          "134140.437000",
          "134142.937000",
          "134145.437000",
          "134147.937000",
          "134150.437000",
          "134152.937000",
          "134155.437000",
          "134157.937000",
          "134200.437000",
          "134202.937000",
          "134205.437000",
          "134207.937000",
          "134210.437000",
          "134212.937000",
          "134215.437000",
          "134217.937000",
          "134220.437000",
          "134222.937000",
          "134225.437000",
          "134227.937000",
          "134230.437000",
          "134232.937000",
          "134235.437000",
          "134237.937000",
          "134240.437000",
          "134242.937000",
          "134245.437000",
          "134247.937000",
          "134250.437000",
          "134252.937000",
          "134255.437000",
          "134257.937000",
          "134300.437000",
          "134302.937000",
          "134305.437000",
          "134307.937000",
          "134310.437000",
          "134312.937000",
          "134315.437000",
          "134317.937000",
          "134320.437000",
          "134322.937000",
          "134325.437000",
          "134327.937000",
          "134330.437000",
          "134332.937000",
          "134335.437000",
          "134337.937000",
          "134340.437000",
          "134342.937000",
          "134345.437000",
          "134347.937000",
          "134350.437000",
          "134352.937000",
          "134355.437000",
          "134357.937000",
          "134400.437000",
          "134402.937000",
          "134405.437000",
          "134407.937000",
          "134410.437000",
          "134412.937000",
          "134415.437000",
          "134417.937000",
          "134420.437000",
          "134422.937000",
          "134425.437000",
          "134427.937000",
          "134430.437000",
          "134432.937000",
          "134435.437000",
          "134437.937000",
          "134440.437000",
          "134442.937000",
          "134445.437000",
          "134447.937000",
          "134450.437000",
          "134452.937000",
          "134455.437000",
          "134457.937000",
          "134500.437000",
          "134502.937000",
          "134505.437000",
          "134507.937000",
          "134510.437000",
          "134512.937000",
          "134515.437000",
          "134517.937000",
          "134520.437000",
          "134522.937000",
          "134525.437000",
          "134527.937000",
          "134530.437000",
          "134532.937000",
          "134535.437000",
          "134537.937000",
          "134540.437000",
          "134542.937000",
          "134545.437000",
          "134547.937000",
          "134550.437000",
          "134552.937000",
          "134555.437000",
          "134557.937000",
          "134600.437000",
          "134602.937000",
          "134605.437000",
          "134607.937000",
          "134610.437000",
          "134612.937000",
          "134615.437000",
          "134617.937000",
          "134620.437000",
          "134622.937000",
          "134625.437000",
          "134627.937000",
          "134630.437000",
          "134632.937000",
          "134635.437000",
          "134637.937000",
          "134640.437000",
          "134642.937000",
          "134645.437000",
          "134647.937000",
          "134650.437000",
          "134652.937000",
          "134655.437000",
          "134657.937000",
          "134700.437000",
          "134702.937000",
          "134705.437000",
          "134707.937000",
          "134710.437000",
          "134712.937000",
          "134715.437000",
          "134717.937000",
          "134720.437000",
          "134722.843000"
        ],
        "InstanceCreationTime": [
          "134035.453000",
          "134037.937000",
          "134040.437000",
          "134042.937000",
          "134045.437000",
          "134047.937000",
          "134050.437000",
          "134052.937000",
          "134055.437000",
          "134057.937000",
          "134100.437000",
          "134102.937000",
          "134105.437000",
          "134107.937000",
          "134110.437000",
          "134112.937000",
          "134115.437000",
          "134117.937000",
          "134120.437000",
          "134122.937000",
          "134125.437000",
          "134127.937000",
          "134130.437000",
          "134132.937000",
          "134135.437000",
          "134137.937000",
          "134140.437000",
          "134142.937000",
          "134145.437000",
          "134147.937000",
          "134150.437000",
          "134152.937000",
          "134155.437000",
          "134157.937000",
          "134200.437000",
          "134202.937000",
          "134205.437000",
          "134207.937000",
          "134210.437000",
          "134212.937000",
          "134215.437000",
          "134217.937000",
          "134220.437000",
          "134222.937000",
          "134225.437000",
          "134227.937000",
          "134230.437000",
          "134232.937000",
          "134235.437000",
          "134237.937000",
          "134240.437000",
          "134242.937000",
          "134245.437000",
          "134247.937000",
          "134250.437000",
          "134252.937000",
          "134255.437000",
          "134257.937000",
          "134300.437000",
          "134302.937000",
          "134305.437000",
          "134307.937000",
          "134310.437000",
          "134312.937000",
          "134315.437000",
          "134317.937000",
          "134320.437000",
          "134322.937000",
          "134325.437000",
          "134327.937000",
          "134330.437000",
          "134332.937000",
          "134335.437000",
          "134337.937000",
          "134340.437000",
          "134342.937000",
          "134345.437000",
          "134347.937000",
          "134350.437000",
          "134352.937000",
          "134355.437000",
          "134357.937000",
          "134400.437000",
          "134402.937000",
          "134405.437000",
          "134407.937000",
          "134410.437000",
          "134412.937000",
          "134415.437000",
          "134417.937000",
          "134420.437000",
          "134422.937000",
          "134425.437000",
          "134427.937000",
          "134430.437000",
          "134432.937000",
          "134435.437000",
          "134437.937000",
          "134440.437000",
          "134442.937000",
          "134445.437000",
          "134447.937000",
          "134450.437000",
          "134452.937000",
          "134455.437000",
          "134457.937000",
          "134500.437000",
          "134502.937000",
          "134505.437000",
          "134507.937000",
          "134510.437000",
          "134512.937000",
          "134515.437000",
          "134517.937000",
          "134520.437000",
          "134522.937000",
          "134525.437000",
          "134527.937000",
          "134530.437000",
          "134532.937000",
          "134535.437000",
          "134537.937000",
          "134540.437000",
          "134542.937000",
          "134545.437000",
          "134547.937000",
          "134550.437000",
          "134552.937000",
          "134555.437000",
          "134557.937000",
          "134600.437000",
          "134602.937000",
          "134605.437000",
          "134607.937000",
          "134610.437000",
          "134612.937000",
          "134615.437000",
          "134617.937000",
          "134620.437000",
          "134622.937000",
          "134625.437000",
          "134627.937000",
          "134630.437000",
          "134632.937000",
          "134635.437000",
          "134637.937000",
          "134640.437000",
          "134642.937000",
          "134645.437000",
          "134647.937000",
          "134650.437000",
          "134652.937000",
          "134655.437000",
          "134657.937000",
          "134700.437000",
          "134702.937000",
          "134705.437000",
          "134707.937000",
          "134710.437000",
          "134712.937000",
          "134715.437000",
          "134717.937000",
          "134720.437000",
          "134722.843000"
        ],
        "InstanceNumber": [
          1,
          2,
          3,
          4,
          5,
          6,
          7,
          8,
          9,
          10,
          11,
          12,
          13,
          14,
          15,
          16,
          17,
          18,
          19,
          20,
          21,
          22,
          23,
          24,
          25,
          26,
          27,
          28,
          29,
          30,
          31,
          32,
          33,
          34,
          35,
          36,
          37,
          38,
          39,
          40,
          41,
          42,
          43,
          44,
          45,
          46,
          47,
          48,
          49,
          50,
          51,
          52,
          53,
          54,
          55,
          56,
          57,
          58,
          59,
          60,
          61,
          62,
          63,
          64,
          65,
          66,
          67,
          68,
          69,
          70,
          71,
          72,
          73,
          74,
          75,
          76,
          77,
          78,
          79,
          80,
          81,
          82,
          83,
          84,
          85,
          86,
          87,
          88,
          89,
          90,
          91,
          92,
          93,
          94,
          95,
          96,
          97,
          98,
          99,
          100,
          101,
          102,
          103,
          104,
          105,
          106,
          107,
          108,
          109,
          110,
          111,
          112,
          113,
          114,
          115,
          116,
          117,
          118,
          119,
          120,
          121,
          122,
          123,
          124,
          125,
          126,
          127,
          128,
          129,
          130,
          131,
          132,
          133,
          134,
          135,
          136,
          137,
          138,
          139,
          140,
          141,
          142,
          143,
          144,
          145,
          146,
          147,
          148,
          149,
          150,
          151,
          152,
          153,
          154,
          155,
          156,
          157,
          158,
          159,
          160,
          161,
          162,
          163,
          164
        ],
        "LargestImagePixelValue": [
          1329,
          1425,
          1334,
          1288,
          1391,
          1282,
          1316,
          1343,
          1293,
          1307,
          1305,
          1235,
          1258,
          1341,
          1278,
          1333,
          1286,
          1332,
          1265,
          1349,
          1297,
          1320,
          1379,
          1280,
          1419,
          1302,
          1331,
          1307,
          1332,
          1323,
          1276,
          1333,
          1289,
          1334,
          1321,
          1284,
          1252,
          1287,
          1340,
          1369,
          1324,
          1288,
          1287,
          1271,
          1416,
          1283,
          1328,
          1313,
          1294,
          1381,
          1322,
          1337,
          1330,
          1320,
          1320,
          1280,
          1327,
          1287,
          1299,
          1232,
          1308,
          1325,
          1309,
          1323,
          1318,
          1288,
          1328,
          1397,
          1294,
          1312,
          1359,
          1320,
          1297,
          1412,
          1331,
          1310,
          1291,
          1256,
          1344,
          1303,
          1280,
          1333,
          1273,
          1250,
          1305,
          1301,
          1306,
          1279,
          1251,
          1318,
          1331,
          1308,
          1300,
          1299,
          1294,
          1286,
          1310,
          1310,
          1296,
          1266,
          1258,
          1257,
          1365,
          1316,
          1307,
          1314,
          1304,
          1327,
          1306,
          1282,
          1269,
          1371,
          1285,
          1291,
          1318,
          1262,
          1303,
          1296,
          1325,
          1281,
          1296,
          1311,
          1320,
          1313,
          1262,
          1254,
          1371,
          1306,
          1274,
          1347,
          1359,
          1335,
          1287,
          1316,
          1252,
          1345,
          1330,
          1314,
          1327,
          1284,
          1297,
          1368,
          1343,
          1336,
          1275,
          1336,
          1266,
          1301,
          1291,
          1351,
          1281,
          1281,
          1305,
          1326,
          1288,
          1283,
          1273,
          1247,
          1287,
          1318,
          1317,
          1321,
          1298,
          1270
        ],
        "WindowCenter": [
          593.0,
          591.0,
          593.0,
          591.0,
          591.0,
          591.0,
          591.0,
          590.0,
          590.0,
          591.0,
          592.0,
          590.0,
          589.0,
          591.0,
          591.0,
          592.0,
          592.0,
          591.0,
          590.0,
          591.0,
          590.0,
          590.0,
          590.0,
          589.0,
          590.0,
          589.0,
          589.0,
          588.0,
          588.0,
          590.0,
          589.0,
          589.0,
          590.0,
          589.0,
          590.0,
          590.0,
          590.0,
          591.0,
          591.0,
          591.0,
          590.0,
          590.0,
          591.0,
          591.0,
          591.0,
          590.0,
          591.0,
          590.0,
          590.0,
          590.0,
          589.0,
          590.0,
          589.0,
          589.0,
          590.0,
          590.0,
          591.0,
          589.0,
          589.0,
          589.0,
          590.0,
          590.0,
          590.0,
          591.0,
          590.0,
          590.0,
          590.0,
          590.0,
          590.0,
          590.0,
          590.0,
          590.0,
          589.0,
          590.0,
          589.0,
          588.0,
          590.0,
          588.0,
          590.0,
          589.0,
          589.0,
          591.0,
          589.0,
          589.0,
          589.0,
          590.0,
          591.0,
          588.0,
          589.0,
          590.0,
          588.0,
          589.0,
          589.0,
          589.0,
          590.0,
          590.0,
          590.0,
          589.0,
          590.0,
          589.0,
          590.0,
          588.0,
          589.0,
          589.0,
          590.0,
          589.0,
          589.0,
          590.0,
          589.0,
          589.0,
          590.0,
          590.0,
          589.0,
          591.0,
          589.0,
          588.0,
          590.0,
          588.0,
          589.0,
          590.0,
          590.0,
          589.0,
          589.0,
          590.0,
          589.0,
          588.0,
          590.0,
          590.0,
          590.0,
          588.0,
          586.0,
          582.0,
          583.0,
          587.0,
          585.0,
          588.0,
          589.0,
          589.0,
          591.0,
          590.0,
          589.0,
          591.0,
          590.0,
          589.0,
          589.0,
          592.0,
          591.0,
          590.0,
          589.0,
          588.0,
          588.0,
