{
  "aor": 0.010827439024390244,
  "aqi": 0.015821045853658535,
  "bids_meta": {
    "AcquisitionMatrixPE": 64,
    "AcquisitionNumber": 1,
    "AcquisitionTime": "17:00:59.825000",
    "BandwidthPerPixelPhaseEncode": 26.483,
    "BaseResolution": 64,
    "BodyPartExamined": "HEAD",
    "CogAtlasID": "TODO",
    "ConversionSoftware": "dcm2niix",
    "ConversionSoftwareVersion": "v1.0.20171017 GCC6.3.0",
    "DerivedVendorReportedEchoSpacing": 0.000590001,
    "DeviceSerialNumber": "35177",
    "DwellTime": 4.1e-06,
    "EchoTime": 0.027,
    "EffectiveEchoSpacing": 0.000590001,
    "FlipAngle": 90,
    "ImageOrientationPatientDICOM": [
      0.98811,
      -0.136615,
      0.0705323,
      0.121674,
      0.975279,
      0.184462
    ],
    "ImageType": [
      "ORIGINAL",
      "PRIMARY",
      "M",
      "ND",
      "NORM",
      "MOSAIC"
    ],
    "InPlanePhaseEncodingDirectionDICOM": "COL",
    "InstitutionAddress": "Scott_Ave._4525_St._Louis_MO_US_63110",
    "InstitutionName": "Washington_University",
    "InstitutionalDepartmentName": "Department",
    "MRAcquisitionType": "2D",
    "MagneticFieldStrength": 3,
    "Manufacturer": "Siemens",
    "ManufacturersModelName": "TrioTim",
    "Modality": "MR",
    "PartialFourier": 1,
    "PatientPosition": "HFS",
    "PercentPhaseFOV": 100,
    "PhaseEncodingDirection": "j-",
    "PhaseEncodingSteps": 64,
    "PhaseResolution": 1,
    "PixelBandwidth": 1905,
    "ProcedureStepDescription": "head_GREENE",
    "ProtocolName": "ep2d_bold_adaptive_feedback_movie_3C",
    "PulseSequenceDetails": "%SiemensSeq%_ep2d_bold",
    "ReceiveCoilName": "HeadMatrix",
    "ReconMatrixPE": 64,
    "RepetitionTime": 2.5,
    "SAR": 0.162901,
    "ScanOptions": "FS",
    "ScanningSequence": "EP",
    "SequenceName": "_epfid2d1_64",
    "SequenceVariant": "SK",
    "SeriesDescription": "ep2d_bold_adaptive_feedback_movie_3C",
    "SeriesNumber": 8,
    "ShimSetting": [
      -188,
      -19713,
      8012,
      403,
      38,
      -813,
      507,
      175
    ],
    "SliceThickness": 4,
    "SliceTiming": [
      1.255,
      0,
      1.335,
      0.08,
      1.4125,
      0.1575,
      1.49,
      0.2375,
      1.57,
      0.315,
      1.6475,
      0.3925,
      1.7275,
      0.4725,
      1.805,
      0.55,
      1.8825,
      0.6275,
      1.9625,
      0.7075,
      2.04,
      0.785,
      2.1175,
      0.865,
      2.1975,
      0.9425,
      2.275,
      1.02,
      2.355,
      1.1,
      2.4325,
      1.1775
    ],
    "SoftwareVersions": "syngo_MR_B17",
    "SpacingBetweenSlices": 4,
    "StationName": "MRC35177",
    "TaskName": "restmovieadaptive",
    "TotalReadoutTime": 0.0371701,
    "TxRefAmp": 327.701,
    "dataset": "ds000256",
    "dcmmeta_affine": [
      [
        -3.9524402618408203,
        0.48669642210006714,
        0.37595611810684204,
        106.07947540283203
      ],
      [
        0.5464608669281006,
        3.901115894317627,
        0.6947482228279114,
        -157.6194610595703
      ],
      [
        0.2821291387081146,
        -0.7378488183021545,
        3.9212231636047363,
        -2.2691659927368164
      ],
      [
        0.0,
        0.0,
        0.0,
        1.0
      ]
    ],
    "dcmmeta_reorient_transform": [
      [
        0.0,
        -1.0,
        0.0,
        63.0
      ],
      [
        1.0,
        0.0,
        0.0,
        0.0
      ],
      [
        0.0,
        0.0,
        1.0,
        0.0
      ],
      [
        0.0,
        0.0,
        0.0,
        1.0
      ]
    ],
    "dcmmeta_shape": [
      64,
      64,
      32,
      164
    ],
    "dcmmeta_slice_dim": 2,
    "dcmmeta_version": 0.6,
    "global": {
      "const": {
        "AccessionNumber": ".",
        "AcquisitionMatrix": [
          64,
          0,
          0,
          64
        ],
        "AngioFlag": "N",
        "BitsAllocated": 16,
        "BitsStored": 12,
        "BodyPartExamined": "HEAD",
        "Columns": 384,
        "DeidentificationMethodCodeSequence": [
          {
            "CodeMeaning": "XNAT Edit Script",
            "CodeValue": "625500",
            "CodingSchemeDesignator": "XNAT",
            "CodingSchemeVersion": "0.1"
          }
        ],
        "EchoNumbers": 1,
        "EchoTime": 27.0,
        "EchoTrainLength": 1,
        "FlipAngle": 90.0,
        "HighBit": 11,
        "ImageOrientationPatient": [
          0.98811005484135,
          -0.1366152136366,
          0.07053228285303,
          0.12167410539309,
          0.97527898910252,
          0.18446220613435
        ],
        "ImagePositionPatient": [
          -847.00320991738,
          -624.89566134801,
          -211.95011500019
        ],
        "ImageType": [
          "ORIGINAL",
          "PRIMARY",
          "M",
          "ND",
          "NORM",
          "MOSAIC"
        ],
        "ImagedNucleus": "1H",
        "ImagingFrequency": 123.255788,
        "InPlanePhaseEncodingDirection": "COL",
        "MRAcquisitionType": "2D",
        "MagneticFieldStrength": 3.0,
        "Manufacturer": "SIEMENS",
        "ManufacturerModelName": "TrioTim",
        "Modality": "MR",
        "NumberOfAverages": 1.0,
        "NumberOfPhaseEncodingSteps": 64,
        "PercentPhaseFieldOfView": 100.0,
        "PercentSampling": 100.0,
        "PerformedProcedureStepStartTime": "162758.078000",
        "PhotometricInterpretation": "MONOCHROME2",
        "PixelBandwidth": 1905.0,
        "PixelRepresentation": 0,
        "PixelSpacing": [
          4.0,
          4.0
        ],
        "PositionReferenceIndicator": "",
        "ProtocolName": "ep2d_bold_adaptive_feedback_movie_3C",
        "RepetitionTime": 2500.0,
        "Rows": 384,
        "SAR": 0.16290080852846,
        "SamplesPerPixel": 1,
        "ScanOptions": "FS",
        "ScanningSequence": "EP",
        "SequenceName": "*epfid2d1_64",
        "SequenceVariant": "SK",
        "SeriesDescription": "ep2d_bold_adaptive_feedback_movie_3C",
        "SeriesNumber": 8,
        "SeriesTime": "170101.015000",
        "SliceLocation": -19.630625234242,
        "SliceThickness": 4.0,
        "SmallestImagePixelValue": 0,
        "SoftwareVersions": "syngo MR B17",
        "SpacingBetweenSlices": 4.0000012295781,
        "SpecificCharacterSet": "ISO_IR 100",
        "StudyID": "1",
        "StudyTime": "162758.015000",
        "TransmitCoilName": "Body",
        "VariableFlipAngleFlag": "N",
        "WindowCenterWidthExplanation": "Algo1",
        "dBdt": 0.0
      },
      "slices": {}
    },
    "modality": "bold",
    "subject_id": "CTS202",
    "task_id": "restmovieadaptive",
    "time": {
      "samples": {
        "AcquisitionNumber": [
          1,
          2,
          3,
          4,
          5,
          6,
          7,
          8,
          9,
          10,
          11,
          12,
          13,
          14,
          15,
          16,
          17,
          18,
          19,
          20,
          21,
          22,
          23,
          24,
          25,
          26,
          27,
          28,
          29,
          30,
          31,
          32,
          33,
          34,
          35,
          36,
          37,
          38,
          39,
          40,
          41,
          42,
          43,
          44,
          45,
          46,
          47,
          48,
          49,
          50,
          51,
          52,
          53,
          54,
          55,
          56,
          57,
          58,
          59,
          60,
          61,
          62,
          63,
          64,
          65,
          66,
          67,
          68,
          69,
          70,
          71,
          72,
          73,
          74,
          75,
          76,
          77,
          78,
          79,
          80,
          81,
          82,
          83,
          84,
          85,
          86,
          87,
          88,
          89,
          90,
          91,
          92,
          93,
          94,
          95,
          96,
          97,
          98,
          99,
          100,
          101,
          102,
          103,
          104,
          105,
          106,
          107,
          108,
          109,
          110,
          111,
          112,
          113,
          114,
          115,
          116,
          117,
          118,
          119,
          120,
          121,
          122,
          123,
          124,
          125,
          126,
          127,
          128,
          129,
          130,
          131,
          132,
          133,
          134,
          135,
          136,
          137,
          138,
          139,
          140,
          141,
          142,
          143,
          144,
          145,
          146,
          147,
          148,
          149,
          150,
          151,
          152,
          153,
          154,
          155,
          156,
          157,
          158,
          159,
          160,
          161,
          162,
          163,
          164
        ],
        "AcquisitionTime": [
          "170059.825000",
          "170102.335000",
          "170104.845000",
          "170107.355000",
          "170109.865000",
          "170112.375000",
          "170114.885000",
          "170117.395000",
          "170119.907500",
          "170122.417500",
          "170124.927500",
          "170127.437500",
          "170129.947500",
          "170132.457500",
          "170134.967500",
          "170137.477500",
          "170139.987500",
          "170142.497500",
          "170145.007500",
          "170147.517500",
          "170150.027500",
          "170152.537500",
          "170155.047500",
          "170157.557500",
          "170200.067500",
          "170202.577500",
          "170205.087500",
          "170207.597500",
          "170210.107500",
          "170212.617500",
          "170215.127500",
          "170217.637500",
          "170220.147500",
          "170222.657500",
          "170225.167500",
          "170227.677500",
          "170230.187500",
          "170232.697500",
          "170235.207500",
          "170237.717500",
          "170240.227500",
          "170242.737500",
          "170245.247500",
          "170247.757500",
          "170250.267500",
          "170252.777500",
          "170255.287500",
          "170257.797500",
          "170300.307500",
          "170302.817500",
          "170305.327500",
          "170307.837500",
          "170310.347500",
          "170312.857500",
          "170315.367500",
          "170317.877500",
          "170320.387500",
          "170322.897500",
          "170325.407500",
          "170327.917500",
          "170330.427500",
          "170332.937500",
          "170335.447500",
          "170337.957500",
          "170340.467500",
          "170342.977500",
          "170345.487500",
          "170347.997500",
          "170350.507500",
          "170353.017500",
          "170355.527500",
          "170358.040000",
          "170400.550000",
          "170403.060000",
          "170405.570000",
          "170408.080000",
          "170410.590000",
          "170413.100000",
          "170415.610000",
          "170418.120000",
          "170420.630000",
          "170423.140000",
          "170425.650000",
          "170428.160000",
          "170430.670000",
          "170433.180000",
          "170435.690000",
          "170438.200000",
          "170440.710000",
          "170443.220000",
          "170445.730000",
          "170448.240000",
          "170450.750000",
          "170453.260000",
          "170455.770000",
          "170458.280000",
          "170500.790000",
          "170503.300000",
          "170505.810000",
          "170508.320000",
          "170510.830000",
          "170513.340000",
          "170515.850000",
          "170518.360000",
          "170520.870000",
          "170523.380000",
          "170525.890000",
          "170528.400000",
          "170530.910000",
          "170533.420000",
          "170535.930000",
          "170538.440000",
          "170540.950000",
          "170543.460000",
          "170545.970000",
          "170548.480000",
          "170550.990000",
          "170553.500000",
          "170556.010000",
          "170558.520000",
          "170601.030000",
          "170603.540000",
          "170606.050000",
          "170608.560000",
          "170611.070000",
          "170613.580000",
          "170616.090000",
          "170618.600000",
          "170621.110000",
          "170623.620000",
          "170626.130000",
          "170628.640000",
          "170631.150000",
          "170633.662500",
          "170636.172500",
          "170638.682500",
          "170641.192500",
          "170643.702500",
          "170646.212500",
          "170648.722500",
          "170651.232500",
          "170653.742500",
          "170656.252500",
          "170658.762500",
          "170701.272500",
          "170703.782500",
          "170706.292500",
          "170708.802500",
          "170711.312500",
          "170713.822500",
          "170716.332500",
          "170718.842500",
          "170721.352500",
          "170723.862500",
          "170726.372500",
          "170728.882500",
          "170731.392500",
          "170733.902500",
          "170736.412500",
          "170738.922500",
          "170741.432500",
          "170743.942500",
          "170746.452500",
          "170748.962500"
        ],
        "ContentTime": [
          "170101.015000",
          "170103.515000",
          "170106.015000",
          "170108.515000",
          "170111.015000",
          "170113.515000",
          "170116.015000",
          "170118.515000",
          "170121.015000",
          "170123.515000",
          "170126.015000",
          "170128.515000",
          "170131.015000",
          "170133.515000",
          "170136.015000",
          "170138.515000",
          "170141.015000",
          "170143.515000",
          "170146.015000",
          "170148.515000",
          "170151.015000",
          "170153.515000",
          "170156.015000",
          "170158.515000",
          "170201.015000",
          "170203.515000",
          "170206.015000",
          "170208.515000",
          "170211.015000",
          "170213.515000",
          "170216.015000",
          "170218.515000",
          "170221.015000",
          "170223.515000",
          "170226.015000",
          "170228.515000",
          "170231.015000",
          "170233.515000",
          "170236.015000",
          "170238.515000",
          "170241.015000",
          "170243.515000",
          "170246.015000",
          "170248.515000",
          "170251.015000",
          "170253.515000",
          "170256.015000",
          "170258.515000",
          "170301.015000",
          "170303.515000",
          "170306.015000",
          "170308.515000",
          "170311.015000",
          "170313.515000",
          "170316.015000",
          "170318.515000",
          "170321.015000",
          "170323.515000",
          "170326.015000",
          "170328.515000",
          "170331.015000",
          "170333.515000",
          "170336.015000",
          "170338.515000",
          "170341.015000",
          "170343.515000",
          "170346.015000",
          "170348.515000",
          "170351.015000",
          "170353.515000",
          "170356.015000",
          "170358.515000",
          "170401.015000",
          "170403.515000",
          "170406.015000",
          "170408.515000",
          "170411.015000",
          "170413.515000",
          "170416.015000",
          "170418.515000",
          "170421.015000",
          "170423.515000",
          "170426.015000",
          "170428.515000",
          "170431.015000",
          "170433.515000",
          "170436.015000",
          "170438.515000",
          "170441.015000",
          "170443.515000",
          "170446.015000",
          "170448.515000",
          "170451.015000",
          "170453.515000",
          "170456.015000",
          "170458.515000",
          "170501.015000",
          "170503.515000",
          "170506.015000",
          "170508.515000",
          "170511.015000",
          "170513.515000",
          "170516.015000",
          "170518.515000",
          "170521.015000",
          "170523.515000",
          "170526.015000",
          "170528.515000",
          "170531.015000",
          "170533.515000",
          "170536.015000",
          "170538.515000",
          "170541.015000",
          "170543.515000",
          "170546.015000",
          "170548.515000",
          "170551.015000",
          "170553.515000",
          "170556.015000",
          "170558.515000",
          "170601.015000",
          "170603.515000",
          "170606.015000",
          "170608.515000",
          "170611.015000",
          "170613.515000",
          "170616.015000",
          "170618.515000",
          "170621.015000",
          "170623.515000",
          "170626.015000",
          "170628.515000",
          "170631.015000",
          "170633.515000",
          "170636.015000",
          "170638.515000",
          "170641.015000",
          "170643.515000",
          "170646.015000",
          "170648.515000",
          "170651.015000",
          "170653.515000",
          "170656.015000",
          "170658.515000",
          "170701.015000",
          "170703.515000",
          "170706.015000",
          "170708.515000",
          "170711.015000",
          "170713.515000",
          "170716.015000",
          "170718.515000",
          "170721.015000",
          "170723.515000",
          "170726.015000",
          "170728.515000",
          "170731.015000",
          "170733.515000",
          "170736.015000",
          "170738.515000",
          "170741.015000",
          "170743.515000",
          "170746.015000",
          "170748.218000"
        ],
        "InstanceCreationTime": [
          "170101.015000",
          "170103.515000",
          "170106.015000",
          "170108.515000",
          "170111.015000",
          "170113.515000",
          "170116.015000",
          "170118.515000",
          "170121.015000",
          "170123.515000",
          "170126.015000",
          "170128.515000",
          "170131.015000",
          "170133.515000",
          "170136.015000",
          "170138.515000",
          "170141.015000",
          "170143.515000",
          "170146.015000",
          "170148.515000",
          "170151.015000",
          "170153.515000",
          "170156.015000",
          "170158.515000",
          "170201.015000",
          "170203.515000",
          "170206.015000",
          "170208.515000",
          "170211.015000",
          "170213.515000",
          "170216.015000",
          "170218.515000",
          "170221.015000",
          "170223.515000",
          "170226.015000",
          "170228.515000",
          "170231.015000",
          "170233.515000",
          "170236.015000",
          "170238.515000",
          "170241.015000",
          "170243.515000",
          "170246.015000",
          "170248.515000",
          "170251.015000",
          "170253.515000",
          "170256.015000",
          "170258.515000",
          "170301.015000",
          "170303.515000",
          "170306.015000",
          "170308.515000",
          "170311.015000",
          "170313.515000",
          "170316.015000",
          "170318.515000",
          "170321.015000",
          "170323.515000",
          "170326.015000",
          "170328.515000",
          "170331.015000",
          "170333.515000",
          "170336.015000",
          "170338.515000",
          "170341.015000",
          "170343.515000",
          "170346.015000",
          "170348.515000",
          "170351.015000",
          "170353.515000",
          "170356.015000",
          "170358.515000",
          "170401.015000",
          "170403.515000",
          "170406.015000",
          "170408.515000",
          "170411.015000",
          "170413.515000",
          "170416.015000",
          "170418.515000",
          "170421.015000",
          "170423.515000",
          "170426.015000",
          "170428.515000",
          "170431.015000",
          "170433.515000",
          "170436.015000",
          "170438.515000",
          "170441.015000",
          "170443.515000",
          "170446.015000",
          "170448.515000",
          "170451.015000",
          "170453.515000",
          "170456.015000",
          "170458.515000",
          "170501.015000",
          "170503.515000",
          "170506.015000",
          "170508.515000",
          "170511.015000",
          "170513.515000",
          "170516.015000",
          "170518.515000",
          "170521.015000",
          "170523.515000",
          "170526.015000",
          "170528.515000",
          "170531.015000",
          "170533.515000",
          "170536.015000",
          "170538.515000",
          "170541.015000",
          "170543.515000",
          "170546.015000",
          "170548.515000",
          "170551.015000",
          "170553.515000",
          "170556.015000",
          "170558.515000",
          "170601.015000",
          "170603.515000",
          "170606.015000",
          "170608.515000",
          "170611.015000",
          "170613.515000",
          "170616.015000",
          "170618.515000",
          "170621.015000",
          "170623.515000",
          "170626.015000",
          "170628.515000",
          "170631.015000",
          "170633.515000",
          "170636.015000",
          "170638.515000",
          "170641.015000",
          "170643.515000",
          "170646.015000",
          "170648.515000",
          "170651.015000",
          "170653.515000",
          "170656.015000",
          "170658.515000",
          "170701.015000",
          "170703.515000",
          "170706.015000",
          "170708.515000",
          "170711.015000",
          "170713.515000",
          "170716.015000",
          "170718.515000",
          "170721.015000",
          "170723.515000",
          "170726.015000",
          "170728.515000",
          "170731.015000",
          "170733.515000",
          "170736.015000",
          "170738.515000",
          "170741.015000",
          "170743.515000",
          "170746.015000",
          "170748.218000"
        ],
        "InstanceNumber": [
          1,
          2,
          3,
          4,
          5,
          6,
          7,
          8,
          9,
          10,
          11,
          12,
          13,
          14,
          15,
          16,
          17,
          18,
          19,
          20,
          21,
          22,
          23,
          24,
          25,
          26,
          27,
          28,
          29,
          30,
          31,
          32,
          33,
          34,
          35,
          36,
          37,
          38,
          39,
          40,
          41,
          42,
          43,
          44,
          45,
          46,
          47,
          48,
          49,
          50,
          51,
          52,
          53,
          54,
          55,
          56,
          57,
          58,
          59,
          60,
          61,
          62,
          63,
          64,
          65,
          66,
          67,
          68,
          69,
          70,
          71,
          72,
          73,
          74,
          75,
          76,
          77,
          78,
          79,
          80,
          81,
          82,
          83,
          84,
          85,
          86,
          87,
          88,
          89,
          90,
          91,
          92,
          93,
          94,
          95,
          96,
          97,
          98,
          99,
          100,
          101,
          102,
          103,
          104,
          105,
          106,
          107,
          108,
          109,
          110,
          111,
          112,
          113,
          114,
          115,
          116,
          117,
          118,
          119,
          120,
          121,
          122,
          123,
          124,
          125,
          126,
          127,
          128,
          129,
          130,
          131,
          132,
          133,
          134,
          135,
          136,
          137,
          138,
          139,
          140,
          141,
          142,
          143,
          144,
          145,
          146,
          147,
          148,
          149,
          150,
          151,
          152,
          153,
          154,
          155,
          156,
          157,
          158,
          159,
          160,
          161,
          162,
          163,
          164
        ],
        "LargestImagePixelValue": [
          1798,
          1524,
          1411,
          1351,
          1355,
          1300,
          1879,
          1802,
          1408,
          1253,
          1289,
          1258,
          1326,
          1588,
          1516,
          1376,
          1555,
          1364,
          1451,
          1812,
          1363,
          1388,
          1391,
          1339,
          1349,
          1584,
          2016,
          1447,
          1536,
          1423,
          1349,
          1396,
          1526,
          1394,
          1360,
          1377,
          1507,
          1610,
          1484,
          1544,
          1840,
          1651,
          1485,
          1423,
          2066,
          2208,
          1661,
          1364,
          1374,
          1588,
          1346,
          1373,
          1364,
          1565,
          1450,
          1314,
          1391,
          1622,
          1458,
          1391,
          1861,
          1268,
          2064,
          1489,
          1409,
          1528,
          1367,
          1265,
          1223,
          1528,
          1522,
          1245,
          1282,
          1751,
          1514,
          1471,
          1322,
          1785,
          1849,
          1627,
          1592,
          1535,
          1324,
          1556,
          1459,
          1292,
          1747,
          1544,
          1584,
          1485,
          1289,
          1282,
          1448,
          1407,
          1749,
          1321,
          1612,
          1819,
          1630,
          1660,
          1344,
          1428,
          1510,
          1605,
          1412,
          1632,
          1367,
          1275,
          1351,
          1384,
          1319,
          1699,
          1259,
          1473,
          1529,
          1413,
          1441,
          1363,
          1544,
          1253,
          1668,
          1716,
          1548,
          1691,
          1642,
          1393,
          1642,
          1687,
          1413,
          1379,
          1640,
          1375,
          1414,
          1856,
          1948,
          1336,
          1394,
          1426,
          1330,
          1309,
          1381,
          1522,
          1504,
          1556,
          1347,
          1721,
          1657,
          1659,
          1238,
          1570,
          1455,
          1565,
          1292,
          1363,
          1344,
          1627,
          1343,
          1403,
          1497,
          1399,
          1999,
          1421,
          1434,
          1532
        ],
        "WindowCenter": [
          608.0,
          605.0,
          605.0,
          607.0,
          605.0,
          605.0,
          606.0,
          605.0,
          606.0,
          605.0,
          606.0,
          606.0,
          606.0,
          607.0,
          605.0,
          606.0,
          606.0,
          607.0,
          606.0,
          607.0,
          606.0,
          605.0,
          606.0,
          609.0,
          606.0,
          611.0,
          607.0,
          606.0,
          607.0,
          607.0,
          607.0,
          607.0,
          608.0,
          607.0,
          607.0,
          613.0,
          609.0,
          610.0,
          609.0,
          613.0,
          608.0,
          612.0,
          609.0,
          609.0,
          610.0,
          614.0,
          608.0,
          607.0,
          607.0,
          607.0,
          606.0,
          612.0,
          607.0,
          612.0,
          606.0,
          607.0,
          607.0,
          608.0,
          608.0,
          608.0,
          608.0,
          611.0,
          607.0,
          606.0,
          607.0,
          611.0,
          606.0,
          605.0,
          606.0,
          607.0,
          606.0,
          606.0,
          607.0,
          613.0,
          608.0,
          607.0,
          607.0,
          608.0,
          607.0,
          608.0,
          607.0,
          612.0,
          608.0,
          608.0,
          611.0,
          605.0,
          607.0,
          606.0,
          606.0,
          605.0,
          605.0,
          608.0,
          607.0,
          607.0,
          608.0,
          607.0,
          608.0,
          608.0,
          608.0,
          606.0,
          605.0,
          607.0,
          607.0,
          607.0,
          606.0,
          606.0,
          606.0,
          606.0,
          607.0,
          607.0,
          607.0,
          612.0,
          607.0,
          608.0,
          608.0,
          608.0,
          608.0,
          608.0,
          609.0,
          611.0,
          608.0,
          609.0,
          607.0,
          607.0,
          607.0,
          606.0,
          606.0,
          606.0,
          604.0,
          605.0,
          605.0,
          606.0,
          606.0,
          607.0,
          611.0,
          605.0,
          605.0,
          605.0,
          605.0,
          606.0,
          611.0,
          608.0,
          608.0,
          609.0,
          608.0,
          608.0,
