{
  "aor": 0.004252269938650306,
  "aqi": 0.00883087975460123,
  "bids_meta": {
    "AcquisitionMatrixPE": 64,
    "AcquisitionNumber": 1,
    "AcquisitionTime": "16:51:6.272500",
    "BandwidthPerPixelPhaseEncode": 26.483,
    "BaseResolution": 64,
    "BodyPartExamined": "HEAD",
    "CogAtlasID": "TODO",
    "ConversionSoftware": "dcm2niix",
    "ConversionSoftwareVersion": "v1.0.20171017 GCC6.3.0",
    "DerivedVendorReportedEchoSpacing": 0.000590001,
    "DeviceSerialNumber": "35177",
    "DwellTime": 4.1e-06,
    "EchoTime": 0.027,
    "EffectiveEchoSpacing": 0.000590001,
    "FlipAngle": 90,
    "ImageOrientationPatientDICOM": [
      0.98811,
      -0.136615,
      0.0705323,
      0.121674,
      0.975279,
      0.184462
    ],
    "ImageType": [
      "ORIGINAL",
      "PRIMARY",
      "M",
      "ND",
      "NORM",
      "MOSAIC"
    ],
    "InPlanePhaseEncodingDirectionDICOM": "COL",
    "InstitutionAddress": "Scott_Ave._4525_St._Louis_MO_US_63110",
    "InstitutionName": "Washington_University",
    "InstitutionalDepartmentName": "Department",
    "MRAcquisitionType": "2D",
    "MagneticFieldStrength": 3,
    "Manufacturer": "Siemens",
    "ManufacturersModelName": "TrioTim",
    "Modality": "MR",
    "PartialFourier": 1,
    "PatientPosition": "HFS",
    "PercentPhaseFOV": 100,
    "PhaseEncodingDirection": "j-",
    "PhaseEncodingSteps": 64,
    "PhaseResolution": 1,
    "PixelBandwidth": 1905,
    "ProcedureStepDescription": "head_GREENE",
    "ProtocolName": "ep2d_bold_movie_rest_2B",
    "PulseSequenceDetails": "%SiemensSeq%_ep2d_bold",
    "ReceiveCoilName": "HeadMatrix",
    "ReconMatrixPE": 64,
    "RepetitionTime": 2.5,
    "SAR": 0.162901,
    "ScanOptions": "FS",
    "ScanningSequence": "EP",
    "SequenceName": "_epfid2d1_64",
    "SequenceVariant": "SK",
    "SeriesDescription": "ep2d_bold_movie_rest_2B",
    "SeriesNumber": 7,
    "ShimSetting": [
      -188,
      -19713,
      8012,
      403,
      38,
      -813,
      507,
      175
    ],
    "SliceThickness": 4,
    "SliceTiming": [
      1.255,
      0,
      1.3325,
      0.0775,
      1.4125,
      0.1575,
      1.49,
      0.235,
      1.5675,
      0.315,
      1.6475,
      0.3925,
      1.725,
      0.47,
      1.805,
      0.55,
      1.8825,
      0.6275,
      1.96,
      0.705,
      2.04,
      0.785,
      2.1175,
      0.8625,
      2.195,
      0.9425,
      2.275,
      1.02,
      2.3525,
      1.0975,
      2.4325,
      1.1775
    ],
    "SoftwareVersions": "syngo_MR_B17",
    "SpacingBetweenSlices": 4,
    "StationName": "MRC35177",
    "TaskName": "restmovienofeedback",
    "TotalReadoutTime": 0.0371701,
    "TxRefAmp": 327.701,
    "dataset": "ds000256",
    "dcmmeta_affine": [
      [
        -3.9524402618408203,
        0.48669642210006714,
        0.37595611810684204,
        106.07947540283203
      ],
      [
        0.5464608669281006,
        3.901115894317627,
        0.6947482228279114,
        -157.6194610595703
      ],
      [
        0.2821291387081146,
        -0.7378488183021545,
        3.9212231636047363,
        -2.2691659927368164
      ],
      [
        0.0,
        0.0,
        0.0,
        1.0
      ]
    ],
    "dcmmeta_reorient_transform": [
      [
        0.0,
        -1.0,
        0.0,
        63.0
      ],
      [
        1.0,
        0.0,
        0.0,
        0.0
      ],
      [
        0.0,
        0.0,
        1.0,
        0.0
      ],
      [
        0.0,
        0.0,
        0.0,
        1.0
      ]
    ],
    "dcmmeta_shape": [
      64,
      64,
      32,
      164
    ],
    "dcmmeta_slice_dim": 2,
    "dcmmeta_version": 0.6,
    "global": {
      "const": {
        "AccessionNumber": ".",
        "AcquisitionMatrix": [
          64,
          0,
          0,
          64
        ],
        "AngioFlag": "N",
        "BitsAllocated": 16,
        "BitsStored": 12,
        "BodyPartExamined": "HEAD",
        "Columns": 384,
        "DeidentificationMethodCodeSequence": [
          {
            "CodeMeaning": "XNAT Edit Script",
            "CodeValue": "625500",
            "CodingSchemeDesignator": "XNAT",
            "CodingSchemeVersion": "0.1"
          }
        ],
        "EchoNumbers": 1,
        "EchoTime": 27.0,
        "EchoTrainLength": 1,
        "FlipAngle": 90.0,
        "HighBit": 11,
        "ImageOrientationPatient": [
          0.98811005484135,
          -0.1366152136366,
          0.07053228285303,
          0.12167410539309,
          0.97527898910252,
          0.18446220613435
        ],
        "ImagePositionPatient": [
          -847.00320991738,
          -624.89566134801,
          -211.95011500019
        ],
        "ImageType": [
          "ORIGINAL",
          "PRIMARY",
          "M",
          "ND",
          "NORM",
          "MOSAIC"
        ],
        "ImagedNucleus": "1H",
        "ImagingFrequency": 123.255786,
        "InPlanePhaseEncodingDirection": "COL",
        "MRAcquisitionType": "2D",
        "MagneticFieldStrength": 3.0,
        "Manufacturer": "SIEMENS",
        "ManufacturerModelName": "TrioTim",
        "Modality": "MR",
        "NumberOfAverages": 1.0,
        "NumberOfPhaseEncodingSteps": 64,
        "PercentPhaseFieldOfView": 100.0,
        "PercentSampling": 100.0,
        "PerformedProcedureStepStartTime": "162758.078000",
        "PhotometricInterpretation": "MONOCHROME2",
        "PixelBandwidth": 1905.0,
        "PixelRepresentation": 0,
        "PixelSpacing": [
          4.0,
          4.0
        ],
        "PositionReferenceIndicator": "",
        "ProtocolName": "ep2d_bold_movie_rest_2B",
        "RepetitionTime": 2500.0,
        "Rows": 384,
        "SAR": 0.16290080852846,
        "SamplesPerPixel": 1,
        "ScanOptions": "FS",
        "ScanningSequence": "EP",
        "SequenceName": "*epfid2d1_64",
        "SequenceVariant": "SK",
        "SeriesDescription": "ep2d_bold_movie_rest_2B",
        "SeriesNumber": 7,
        "SeriesTime": "165107.562000",
        "SliceLocation": -19.630625234242,
        "SliceThickness": 4.0,
        "SmallestImagePixelValue": 0,
        "SoftwareVersions": "syngo MR B17",
        "SpacingBetweenSlices": 4.0000012295781,
        "SpecificCharacterSet": "ISO_IR 100",
        "StudyID": "1",
        "StudyTime": "162758.015000",
        "TransmitCoilName": "Body",
        "VariableFlipAngleFlag": "N",
        "WindowCenterWidthExplanation": "Algo1",
        "dBdt": 0.0
      },
      "slices": {}
    },
    "modality": "bold",
    "subject_id": "CTS202",
    "task_id": "restmovienofeedback",
    "time": {
      "samples": {
        "AcquisitionNumber": [
          1,
          2,
          3,
          4,
          5,
          6,
          7,
          8,
          9,
          10,
          11,
          12,
          13,
          14,
          15,
          16,
          17,
          18,
          19,
          20,
          21,
          22,
          23,
          24,
          25,
          26,
          27,
          28,
          29,
          30,
          31,
          32,
          33,
          34,
          35,
          36,
          37,
          38,
          39,
          40,
          41,
          42,
          43,
          44,
          45,
          46,
          47,
          48,
          49,
          50,
          51,
          52,
          53,
          54,
          55,
          56,
          57,
          58,
          59,
          60,
          61,
          62,
          63,
          64,
          65,
          66,
          67,
          68,
          69,
          70,
          71,
          72,
          73,
          74,
          75,
          76,
          77,
          78,
          79,
          80,
          81,
          82,
          83,
          84,
          85,
          86,
          87,
          88,
          89,
          90,
          91,
          92,
          93,
          94,
          95,
          96,
          97,
          98,
          99,
          100,
          101,
          102,
          103,
          104,
          105,
          106,
          107,
          108,
          109,
          110,
          111,
          112,
          113,
          114,
          115,
          116,
          117,
          118,
          119,
          120,
          121,
          122,
          123,
          124,
          125,
          126,
          127,
          128,
          129,
          130,
          131,
          132,
          133,
          134,
          135,
          136,
          137,
          138,
          139,
          140,
          141,
          142,
          143,
          144,
          145,
          146,
          147,
          148,
          149,
          150,
          151,
          152,
          153,
          154,
          155,
          156,
          157,
          158,
          159,
          160,
          161,
          162,
          163,
          164
        ],
        "AcquisitionTime": [
          "165106.272500",
          "165108.782500",
          "165111.292500",
          "165113.802500",
          "165116.312500",
          "165118.822500",
          "165121.332500",
          "165123.842500",
          "165126.352500",
          "165128.862500",
          "165131.372500",
          "165133.882500",
          "165136.392500",
          "165138.902500",
          "165141.412500",
          "165143.922500",
          "165146.432500",
          "165148.942500",
          "165151.452500",
          "165153.962500",
          "165156.472500",
          "165158.982500",
          "165201.492500",
          "165204.002500",
          "165206.512500",
          "165209.022500",
          "165211.532500",
          "165214.042500",
          "165216.552500",
          "165219.062500",
          "165221.572500",
          "165224.085000",
          "165226.595000",
          "165229.105000",
          "165231.615000",
          "165234.125000",
          "165236.635000",
          "165239.145000",
          "165241.655000",
          "165244.165000",
          "165246.675000",
          "165249.185000",
          "165251.695000",
          "165254.205000",
          "165256.715000",
          "165259.225000",
          "165301.735000",
          "165304.245000",
          "165306.755000",
          "165309.265000",
          "165311.775000",
          "165314.285000",
          "165316.795000",
          "165319.305000",
          "165321.815000",
          "165324.325000",
          "165326.835000",
          "165329.345000",
          "165331.855000",
          "165334.365000",
          "165336.875000",
          "165339.385000",
          "165341.895000",
          "165344.405000",
          "165346.915000",
          "165349.425000",
          "165351.935000",
          "165354.445000",
          "165356.955000",
          "165359.465000",
          "165401.975000",
          "165404.485000",
          "165406.995000",
          "165409.505000",
          "165412.015000",
          "165414.525000",
          "165417.035000",
          "165419.545000",
          "165422.055000",
          "165424.565000",
          "165427.075000",
          "165429.585000",
          "165432.095000",
          "165434.605000",
          "165437.115000",
          "165439.625000",
          "165442.135000",
          "165444.645000",
          "165447.155000",
          "165449.665000",
          "165452.175000",
          "165454.685000",
          "165457.195000",
          "165459.707500",
          "165502.217500",
          "165504.727500",
          "165507.237500",
          "165509.747500",
          "165512.257500",
          "165514.767500",
          "165517.277500",
          "165519.787500",
          "165522.297500",
          "165524.807500",
          "165527.317500",
          "165529.827500",
          "165532.337500",
          "165534.847500",
          "165537.357500",
          "165539.867500",
          "165542.377500",
          "165544.887500",
          "165547.397500",
          "165549.907500",
          "165552.417500",
          "165554.927500",
          "165557.437500",
          "165559.947500",
          "165602.457500",
          "165604.967500",
          "165607.477500",
          "165609.987500",
          "165612.497500",
          "165615.007500",
          "165617.517500",
          "165620.027500",
          "165622.537500",
          "165625.047500",
          "165627.557500",
          "165630.067500",
          "165632.577500",
          "165635.087500",
          "165637.597500",
          "165640.107500",
          "165642.617500",
          "165645.127500",
          "165647.637500",
          "165650.147500",
          "165652.657500",
          "165655.167500",
          "165657.677500",
          "165700.187500",
          "165702.697500",
          "165705.207500",
          "165707.717500",
          "165710.227500",
          "165712.737500",
          "165715.247500",
          "165717.757500",
          "165720.267500",
          "165722.777500",
          "165725.287500",
          "165727.797500",
          "165730.307500",
          "165732.817500",
          "165735.330000",
          "165737.840000",
          "165740.350000",
          "165742.860000",
          "165745.370000",
          "165747.880000",
          "165750.390000",
          "165752.900000",
          "165755.410000"
        ],
        "ContentTime": [
          "165107.562000",
          "165110.046000",
          "165112.546000",
          "165115.046000",
          "165117.546000",
          "165120.046000",
          "165122.546000",
          "165125.046000",
          "165127.546000",
          "165130.046000",
          "165132.546000",
          "165135.046000",
          "165137.546000",
          "165140.046000",
          "165142.546000",
          "165145.046000",
          "165147.546000",
          "165150.046000",
          "165152.546000",
          "165155.046000",
          "165157.546000",
          "165200.046000",
          "165202.546000",
          "165205.046000",
          "165207.546000",
          "165210.046000",
          "165212.546000",
          "165215.046000",
          "165217.546000",
          "165220.046000",
          "165222.546000",
          "165225.046000",
          "165227.546000",
          "165230.046000",
          "165232.546000",
          "165235.046000",
          "165237.546000",
          "165240.046000",
          "165242.546000",
          "165245.046000",
          "165247.546000",
          "165250.046000",
          "165252.546000",
          "165255.046000",
          "165257.546000",
          "165300.046000",
          "165302.546000",
          "165305.046000",
          "165307.546000",
          "165310.046000",
          "165312.546000",
          "165315.046000",
          "165317.546000",
          "165320.046000",
          "165322.546000",
          "165325.046000",
          "165327.546000",
          "165330.046000",
          "165332.546000",
          "165335.046000",
          "165337.546000",
          "165340.046000",
          "165342.546000",
          "165345.046000",
          "165347.546000",
          "165350.046000",
          "165352.546000",
          "165355.046000",
          "165357.546000",
          "165400.046000",
          "165402.546000",
          "165405.046000",
          "165407.546000",
          "165410.046000",
          "165412.546000",
          "165415.046000",
          "165417.546000",
          "165420.046000",
          "165422.546000",
          "165425.046000",
          "165427.546000",
          "165430.046000",
          "165432.546000",
          "165435.046000",
          "165437.546000",
          "165440.046000",
          "165442.546000",
          "165445.046000",
          "165447.546000",
          "165450.046000",
          "165452.546000",
          "165455.046000",
          "165457.546000",
          "165500.046000",
          "165502.546000",
          "165505.046000",
          "165507.546000",
          "165510.046000",
          "165512.546000",
          "165515.046000",
          "165517.546000",
          "165520.046000",
          "165522.546000",
          "165525.046000",
          "165527.546000",
          "165530.046000",
          "165532.546000",
          "165535.046000",
          "165537.546000",
          "165540.046000",
          "165542.546000",
          "165545.046000",
          "165547.546000",
          "165550.046000",
          "165552.546000",
          "165555.046000",
          "165557.546000",
          "165600.046000",
          "165602.546000",
          "165605.046000",
          "165607.546000",
          "165610.046000",
          "165612.546000",
          "165615.046000",
          "165617.546000",
          "165620.046000",
          "165622.546000",
          "165625.046000",
          "165627.546000",
          "165630.046000",
          "165632.546000",
          "165635.046000",
          "165637.546000",
          "165640.046000",
          "165642.546000",
          "165645.046000",
          "165647.546000",
          "165650.046000",
          "165652.546000",
          "165655.046000",
          "165657.546000",
          "165700.046000",
          "165702.546000",
          "165705.046000",
          "165707.546000",
          "165710.046000",
          "165712.546000",
          "165715.046000",
          "165717.546000",
          "165720.046000",
          "165722.546000",
          "165725.046000",
          "165727.546000",
          "165730.046000",
          "165732.546000",
          "165735.046000",
          "165737.546000",
          "165740.046000",
          "165742.546000",
          "165745.046000",
          "165747.546000",
          "165750.046000",
          "165752.546000",
          "165755.031000"
        ],
        "InstanceCreationTime": [
          "165107.562000",
          "165110.046000",
          "165112.546000",
          "165115.046000",
          "165117.546000",
          "165120.046000",
          "165122.546000",
          "165125.046000",
          "165127.546000",
          "165130.046000",
          "165132.546000",
          "165135.046000",
          "165137.546000",
          "165140.046000",
          "165142.546000",
          "165145.046000",
          "165147.546000",
          "165150.046000",
          "165152.546000",
          "165155.046000",
          "165157.546000",
          "165200.046000",
          "165202.546000",
          "165205.046000",
          "165207.546000",
          "165210.046000",
          "165212.546000",
          "165215.046000",
          "165217.546000",
          "165220.046000",
          "165222.546000",
          "165225.046000",
          "165227.546000",
          "165230.046000",
          "165232.546000",
          "165235.046000",
          "165237.546000",
          "165240.046000",
          "165242.546000",
          "165245.046000",
          "165247.546000",
          "165250.046000",
          "165252.546000",
          "165255.046000",
          "165257.546000",
          "165300.046000",
          "165302.546000",
          "165305.046000",
          "165307.546000",
          "165310.046000",
          "165312.546000",
          "165315.046000",
          "165317.546000",
          "165320.046000",
          "165322.546000",
          "165325.046000",
          "165327.546000",
          "165330.046000",
          "165332.546000",
          "165335.046000",
          "165337.546000",
          "165340.046000",
          "165342.546000",
          "165345.046000",
          "165347.546000",
          "165350.046000",
          "165352.546000",
          "165355.046000",
          "165357.546000",
          "165400.046000",
          "165402.546000",
          "165405.046000",
          "165407.546000",
          "165410.046000",
          "165412.546000",
          "165415.046000",
          "165417.546000",
          "165420.046000",
          "165422.546000",
          "165425.046000",
          "165427.546000",
          "165430.046000",
          "165432.546000",
          "165435.046000",
          "165437.546000",
          "165440.046000",
          "165442.546000",
          "165445.046000",
          "165447.546000",
          "165450.046000",
          "165452.546000",
          "165455.046000",
          "165457.546000",
          "165500.046000",
          "165502.546000",
          "165505.046000",
          "165507.546000",
          "165510.046000",
          "165512.546000",
          "165515.046000",
          "165517.546000",
          "165520.046000",
          "165522.546000",
          "165525.046000",
          "165527.546000",
          "165530.046000",
          "165532.546000",
          "165535.046000",
          "165537.546000",
          "165540.046000",
          "165542.546000",
          "165545.046000",
          "165547.546000",
          "165550.046000",
          "165552.546000",
          "165555.046000",
          "165557.546000",
          "165600.046000",
          "165602.546000",
          "165605.046000",
          "165607.546000",
          "165610.046000",
          "165612.546000",
          "165615.046000",
          "165617.546000",
          "165620.046000",
          "165622.546000",
          "165625.046000",
          "165627.546000",
          "165630.046000",
          "165632.546000",
          "165635.046000",
          "165637.546000",
          "165640.046000",
          "165642.546000",
          "165645.046000",
          "165647.546000",
          "165650.046000",
          "165652.546000",
          "165655.046000",
          "165657.546000",
          "165700.046000",
          "165702.546000",
          "165705.046000",
          "165707.546000",
          "165710.046000",
          "165712.546000",
          "165715.046000",
          "165717.546000",
          "165720.046000",
          "165722.546000",
          "165725.046000",
          "165727.546000",
          "165730.046000",
          "165732.546000",
          "165735.046000",
          "165737.546000",
          "165740.046000",
          "165742.546000",
          "165745.046000",
          "165747.546000",
          "165750.046000",
          "165752.546000",
          "165755.031000"
        ],
        "InstanceNumber": [
          1,
          2,
          3,
          4,
          5,
          6,
          7,
          8,
          9,
          10,
          11,
          12,
          13,
          14,
          15,
          16,
          17,
          18,
          19,
          20,
          21,
          22,
          23,
          24,
          25,
          26,
          27,
          28,
          29,
          30,
          31,
          32,
          33,
          34,
          35,
          36,
          37,
          38,
          39,
          40,
          41,
          42,
          43,
          44,
          45,
          46,
          47,
          48,
          49,
          50,
          51,
          52,
          53,
          54,
          55,
          56,
          57,
          58,
          59,
          60,
          61,
          62,
          63,
          64,
          65,
          66,
          67,
          68,
          69,
          70,
          71,
          72,
          73,
          74,
          75,
          76,
          77,
          78,
          79,
          80,
          81,
          82,
          83,
          84,
          85,
          86,
          87,
          88,
          89,
          90,
          91,
          92,
          93,
          94,
          95,
          96,
          97,
          98,
          99,
          100,
          101,
          102,
          103,
          104,
          105,
          106,
          107,
          108,
          109,
          110,
          111,
          112,
          113,
          114,
          115,
          116,
          117,
          118,
          119,
          120,
          121,
          122,
          123,
          124,
          125,
          126,
          127,
          128,
          129,
          130,
          131,
          132,
          133,
          134,
          135,
          136,
          137,
          138,
          139,
          140,
          141,
          142,
          143,
          144,
          145,
          146,
          147,
          148,
          149,
          150,
          151,
          152,
          153,
          154,
          155,
          156,
          157,
          158,
          159,
          160,
          161,
          162,
          163,
          164
        ],
        "LargestImagePixelValue": [
          1651,
          1697,
          1498,
          1486,
          1350,
          1809,
          1661,
          1469,
          1647,
          1671,
          1535,
          1713,
          1581,
          1381,
          1480,
          1743,
          1605,
          1279,
          1309,
          1341,
          1543,
          1642,
          1248,
          1314,
          1280,
          1966,
          1741,
          1313,
          1232,
          1386,
          1695,
          1387,
          1535,
          1579,
          1282,
          1365,
          1346,
          1481,
          1418,
          1431,
          1462,
          1842,
          1458,
          1244,
          1299,
          1287,
          1265,
          1372,
          1437,
          1520,
          1687,
          1289,
          1323,
          1620,
          1633,
          1374,
          1208,
          1357,
          1956,
          1660,
          1537,
          1656,
          1282,
          1307,
          1513,
          1585,
          1487,
          1436,
          1340,
          1580,
          1367,
          1522,
          1642,
          1632,
          1830,
          1306,
          1312,
          1255,
          1358,
          1294,
          1670,
          1235,
          1523,
          1531,
          1391,
          1524,
          1703,
          1481,
          1534,
          1344,
          1268,
          1722,
          1649,
          1673,
          1591,
          1500,
          1293,
          1338,
          1259,
          1237,
          1713,
          1330,
          1485,
          1366,
          1367,
          1343,
          1481,
          1519,
          1409,
          1713,
          1305,
          1244,
          1499,
          1461,
          1573,
          1265,
          1756,
          1659,
          1288,
          1309,
          1418,
          1684,
          1349,
          1340,
          1311,
          1640,
          1598,
          1594,
          1456,
          1425,
          1221,
          1401,
          1245,
          1723,
          1430,
          1634,
          1386,
          1535,
          1575,
          1287,
          1286,
          1341,
          1276,
          1740,
          1339,
          1682,
          1719,
          1378,
          1561,
          1479,
          1337,
          1371,
          1540,
          1386,
          1709,
          1590,
          1446,
          1379,
          1286,
          1404,
          1279,
          1476,
          1328,
          1360
        ],
        "WindowCenter": [
          607.0,
          606.0,
          605.0,
          603.0,
          604.0,
          605.0,
          605.0,
          604.0,
          605.0,
          604.0,
          603.0,
          604.0,
          602.0,
          604.0,
          608.0,
          604.0,
          604.0,
          603.0,
          603.0,
          608.0,
          604.0,
          604.0,
          602.0,
          606.0,
          604.0,
          607.0,
          610.0,
          605.0,
          604.0,
          604.0,
          603.0,
          604.0,
          604.0,
          605.0,
          604.0,
          604.0,
          604.0,
          605.0,
          604.0,
          609.0,
          604.0,
          604.0,
          602.0,
          603.0,
          603.0,
          608.0,
          604.0,
          605.0,
          605.0,
          604.0,
          605.0,
          603.0,
          604.0,
          605.0,
          604.0,
          603.0,
          604.0,
          608.0,
          606.0,
          605.0,
          607.0,
          605.0,
          604.0,
          604.0,
          605.0,
          607.0,
          605.0,
          605.0,
          605.0,
          605.0,
          605.0,
          607.0,
          606.0,
          606.0,
          605.0,
          604.0,
          604.0,
          607.0,
          602.0,
          605.0,
          605.0,
          604.0,
          607.0,
          606.0,
          604.0,
          605.0,
          606.0,
          605.0,
          606.0,
          604.0,
          604.0,
          606.0,
          605.0,
          605.0,
          604.0,
          610.0,
          604.0,
          605.0,
          605.0,
          604.0,
          607.0,
          605.0,
          605.0,
          605.0,
          604.0,
          609.0,
          606.0,
          604.0,
          603.0,
          610.0,
          606.0,
          605.0,
          606.0,
          605.0,
          605.0,
          604.0,
          606.0,
          610.0,
          604.0,
          605.0,
          606.0,
          606.0,
          605.0,
          605.0,
          603.0,
          605.0,
          605.0,
          605.0,
          610.0,
          604.0,
          604.0,
          605.0,
          606.0,
          607.0,
          606.0,
          607.0,
          610.0,
          605.0,
          606.0,
          604.0,
          605.0,
          606.0,
          604.0,
          606.0,
          605.0,
          605.0,
          604.0,
          604.0,
          604.0,
