{
  "aor": 0.004036625766871166,
  "aqi": 0.0027256020858895708,
  "bids_meta": {
    "AcquisitionMatrixPE": 64,
    "AcquisitionNumber": 1,
    "AcquisitionTime": "18:32:3.167500",
    "BandwidthPerPixelPhaseEncode": 26.483,
    "BaseResolution": 64,
    "BodyPartExamined": "HEAD",
    "CogAtlasID": "TODO",
    "ConversionSoftware": "dcm2niix",
    "ConversionSoftwareVersion": "v1.0.20171017 GCC6.3.0",
    "DerivedVendorReportedEchoSpacing": 0.000590001,
    "DeviceSerialNumber": "35177",
    "DwellTime": 4.1e-06,
    "EchoTime": 0.027,
    "EffectiveEchoSpacing": 0.000590001,
    "FlipAngle": 90,
    "ImageOrientationPatientDICOM": [
      0.998555,
      -0.0371559,
      -0.0388336,
      0.0392539,
      0.997729,
      0.0547359
    ],
    "ImageType": [
      "ORIGINAL",
      "PRIMARY",
      "M",
      "ND",
      "NORM",
      "MOSAIC"
    ],
    "InPlanePhaseEncodingDirectionDICOM": "COL",
    "InstitutionAddress": "Scott_Ave._4525_St._Louis_MO_US_63110",
    "InstitutionName": "Washington_University",
    "InstitutionalDepartmentName": "Department",
    "MRAcquisitionType": "2D",
    "MagneticFieldStrength": 3,
    "Manufacturer": "Siemens",
    "ManufacturersModelName": "TrioTim",
    "Modality": "MR",
    "PartialFourier": 1,
    "PatientPosition": "HFS",
    "PercentPhaseFOV": 100,
    "PhaseEncodingDirection": "j-",
    "PhaseEncodingSteps": 64,
    "PhaseResolution": 1,
    "PixelBandwidth": 1905,
    "ProcedureStepDescription": "head_GREENE",
    "ProtocolName": "ep2d_bold_rest2",
    "PulseSequenceDetails": "%SiemensSeq%_ep2d_bold",
    "ReceiveCoilName": "HeadMatrix",
    "ReconMatrixPE": 64,
    "RepetitionTime": 2.5,
    "SAR": 0.113534,
    "ScanOptions": "FS",
    "ScanningSequence": "EP",
    "SequenceName": "_epfid2d1_64",
    "SequenceVariant": "SK",
    "SeriesDescription": "ep2d_bold_rest2",
    "SeriesNumber": 10,
    "ShimSetting": [
      -267,
      -19498,
      7988,
      32,
      38,
      -243,
      135,
      19
    ],
    "SliceThickness": 4,
    "SliceTiming": [
      1.255,
      0,
      1.3325,
      0.0775,
      1.41,
      0.155,
      1.49,
      0.235,
      1.5675,
      0.3125,
      1.645,
      0.39,
      1.725,
      0.47,
      1.8025,
      0.5475,
      1.88,
      0.6275,
      1.96,
      0.705,
      2.0375,
      0.7825,
      2.1175,
      0.8625,
      2.195,
      0.94,
      2.2725,
      1.0175,
      2.3525,
      1.0975,
      2.43,
      1.175
    ],
    "SoftwareVersions": "syngo_MR_B17",
    "SpacingBetweenSlices": 4,
    "StationName": "MRC35177",
    "TaskName": "restfixationnofeedback",
    "TotalReadoutTime": 0.0371701,
    "TxRefAmp": 340.486,
    "dataset": "ds000256",
    "dcmmeta_affine": [
      [
        -3.994218587875366,
        0.15701542794704437,
        -0.14684653282165527,
        120.25151824951172
      ],
      [
        0.14862364530563354,
        3.9909160137176514,
        0.22472479939460754,
        -140.8764190673828
      ],
      [
        -0.15533436834812164,
        -0.218943789601326,
        3.990981340408325,
        -32.8968391418457
      ],
      [
        0.0,
        0.0,
        0.0,
        1.0
      ]
    ],
    "dcmmeta_reorient_transform": [
      [
        0.0,
        -1.0,
        0.0,
        63.0
      ],
      [
        1.0,
        0.0,
        0.0,
        0.0
      ],
      [
        0.0,
        0.0,
        1.0,
        0.0
      ],
      [
        0.0,
        0.0,
        0.0,
        1.0
      ]
    ],
    "dcmmeta_shape": [
      64,
      64,
      32,
      164
    ],
    "dcmmeta_slice_dim": 2,
    "dcmmeta_version": 0.6,
    "global": {
      "const": {
        "AccessionNumber": ".",
        "AcquisitionMatrix": [
          64,
          0,
          0,
          64
        ],
        "AngioFlag": "N",
        "BitsAllocated": 16,
        "BitsStored": 12,
        "BodyPartExamined": "HEAD",
        "Columns": 384,
        "DeidentificationMethodCodeSequence": [
          {
            "CodeMeaning": "XNAT Edit Script",
            "CodeValue": "625500",
            "CodingSchemeDesignator": "XNAT",
            "CodingSchemeVersion": "0.1"
          },
          {
            "CodeMeaning": "XNAT Edit Script",
            "CodeValue": "625500",
            "CodingSchemeDesignator": "XNAT",
            "CodingSchemeVersion": "0.1"
          }
        ],
        "EchoNumbers": 1,
        "EchoTime": 27.0,
        "EchoTrainLength": 1,
        "FlipAngle": 90.0,
        "HighBit": 11,
        "ImageOrientationPatient": [
          0.99855465071256,
          -0.037155910585,
          -0.0388335917591,
          0.03925385759368,
          0.99772897661852,
          0.05473594687017
        ],
        "ImagePositionPatient": [
          -794.34093833313,
          -725.31803799257,
          -56.867805325616
        ],
        "ImageType": [
          "ORIGINAL",
          "PRIMARY",
          "M",
          "ND",
          "NORM",
          "MOSAIC"
        ],
        "ImagedNucleus": "1H",
        "ImagingFrequency": 123.255894,
        "InPlanePhaseEncodingDirection": "COL",
        "MRAcquisitionType": "2D",
        "MagneticFieldStrength": 3.0,
        "Manufacturer": "SIEMENS",
        "ManufacturerModelName": "TrioTim",
        "Modality": "MR",
        "NumberOfAverages": 1.0,
        "NumberOfPhaseEncodingSteps": 64,
        "PercentPhaseFieldOfView": 100.0,
        "PercentSampling": 100.0,
        "PerformedProcedureStepStartTime": "174528.734000",
        "PhotometricInterpretation": "MONOCHROME2",
        "PixelBandwidth": 1905.0,
        "PixelRepresentation": 0,
        "PixelSpacing": [
          4.0,
          4.0
        ],
        "PositionReferenceIndicator": "",
        "ProtocolName": "ep2d_bold_rest2",
        "RepetitionTime": 2500.0,
        "Rows": 384,
        "SAR": 0.11353402061555,
        "SamplesPerPixel": 1,
        "ScanOptions": "FS",
        "ScanningSequence": "EP",
        "SequenceName": "*epfid2d1_64",
        "SequenceVariant": "SK",
        "SeriesDescription": "ep2d_bold_rest2",
        "SeriesNumber": 10,
        "SeriesTime": "183205.828000",
        "SliceLocation": -45.151908063845,
        "SliceThickness": 4.0,
        "SmallestImagePixelValue": 0,
        "SoftwareVersions": "syngo MR B17",
        "SpacingBetweenSlices": 3.9999997502693,
        "SpecificCharacterSet": "ISO_IR 100",
        "StudyID": "1",
        "StudyTime": "174528.687000",
        "TransmitCoilName": "Body",
        "VariableFlipAngleFlag": "N",
        "WindowCenterWidthExplanation": "Algo1",
        "dBdt": 0.0
      },
      "slices": {}
    },
    "modality": "bold",
    "subject_id": "CTS231",
    "task_id": "restfixationnofeedback",
    "time": {
      "samples": {
        "AcquisitionNumber": [
          1,
          2,
          3,
          4,
          5,
          6,
          7,
          8,
          9,
          10,
          11,
          12,
          13,
          14,
          15,
          16,
          17,
          18,
          19,
          20,
          21,
          22,
          23,
          24,
          25,
          26,
          27,
          28,
          29,
          30,
          31,
          32,
          33,
          34,
          35,
          36,
          37,
          38,
          39,
          40,
          41,
          42,
          43,
          44,
          45,
          46,
          47,
          48,
          49,
          50,
          51,
          52,
          53,
          54,
          55,
          56,
          57,
          58,
          59,
          60,
          61,
          62,
          63,
          64,
          65,
          66,
          67,
          68,
          69,
          70,
          71,
          72,
          73,
          74,
          75,
          76,
          77,
          78,
          79,
          80,
          81,
          82,
          83,
          84,
          85,
          86,
          87,
          88,
          89,
          90,
          91,
          92,
          93,
          94,
          95,
          96,
          97,
          98,
          99,
          100,
          101,
          102,
          103,
          104,
          105,
          106,
          107,
          108,
          109,
          110,
          111,
          112,
          113,
          114,
          115,
          116,
          117,
          118,
          119,
          120,
          121,
          122,
          123,
          124,
          125,
          126,
          127,
          128,
          129,
          130,
          131,
          132,
          133,
          134,
          135,
          136,
          137,
          138,
          139,
          140,
          141,
          142,
          143,
          144,
          145,
          146,
          147,
          148,
          149,
          150,
          151,
          152,
          153,
          154,
          155,
          156,
          157,
          158,
          159,
          160,
          161,
          162,
          163,
          164
        ],
        "AcquisitionTime": [
          "183203.167500",
          "183205.677500",
          "183208.187500",
          "183210.697500",
          "183213.207500",
          "183215.717500",
          "183218.227500",
          "183220.737500",
          "183223.247500",
          "183225.757500",
          "183228.267500",
          "183230.777500",
          "183233.287500",
          "183235.797500",
          "183238.307500",
          "183240.817500",
          "183243.327500",
          "183245.837500",
          "183248.347500",
          "183250.857500",
          "183253.367500",
          "183255.877500",
          "183258.387500",
          "183300.897500",
          "183303.407500",
          "183305.917500",
          "183308.427500",
          "183310.937500",
          "183313.447500",
          "183315.957500",
          "183318.467500",
          "183320.977500",
          "183323.487500",
          "183325.997500",
          "183328.507500",
          "183331.017500",
          "183333.527500",
          "183336.037500",
          "183338.547500",
          "183341.057500",
          "183343.567500",
          "183346.077500",
          "183348.587500",
          "183351.097500",
          "183353.607500",
          "183356.117500",
          "183358.627500",
          "183401.137500",
          "183403.647500",
          "183406.157500",
          "183408.667500",
          "183411.177500",
          "183413.687500",
          "183416.197500",
          "183418.707500",
          "183421.217500",
          "183423.727500",
          "183426.237500",
          "183428.747500",
          "183431.257500",
          "183433.767500",
          "183436.277500",
          "183438.790000",
          "183441.300000",
          "183443.810000",
          "183446.320000",
          "183448.830000",
          "183451.340000",
          "183453.850000",
          "183456.360000",
          "183458.870000",
          "183501.380000",
          "183503.890000",
          "183506.400000",
          "183508.910000",
          "183511.420000",
          "183513.930000",
          "183516.440000",
          "183518.950000",
          "183521.460000",
          "183523.970000",
          "183526.480000",
          "183528.990000",
          "183531.500000",
          "183534.010000",
          "183536.520000",
          "183539.030000",
          "183541.540000",
          "183544.050000",
          "183546.560000",
          "183549.070000",
          "183551.580000",
          "183554.090000",
          "183556.600000",
          "183559.110000",
          "183601.620000",
          "183604.130000",
          "183606.640000",
          "183609.150000",
          "183611.660000",
          "183614.170000",
          "183616.680000",
          "183619.190000",
          "183621.700000",
          "183624.210000",
          "183626.720000",
          "183629.230000",
          "183631.740000",
          "183634.250000",
          "183636.760000",
          "183639.270000",
          "183641.780000",
          "183644.290000",
          "183646.800000",
          "183649.310000",
          "183651.820000",
          "183654.330000",
          "183656.840000",
          "183659.350000",
          "183701.860000",
          "183704.370000",
          "183706.880000",
          "183709.390000",
          "183711.900000",
          "183714.412500",
          "183716.922500",
          "183719.432500",
          "183721.942500",
          "183724.452500",
          "183726.962500",
          "183729.472500",
          "183731.982500",
          "183734.492500",
          "183737.002500",
          "183739.512500",
          "183742.022500",
          "183744.532500",
          "183747.042500",
          "183749.552500",
          "183752.062500",
          "183754.572500",
          "183757.082500",
          "183759.592500",
          "183802.102500",
          "183804.612500",
          "183807.122500",
          "183809.632500",
          "183812.142500",
          "183814.652500",
          "183817.162500",
          "183819.672500",
          "183822.182500",
          "183824.692500",
          "183827.202500",
          "183829.712500",
          "183832.222500",
          "183834.732500",
          "183837.242500",
          "183839.752500",
          "183842.262500",
          "183844.772500",
          "183847.282500",
          "183849.792500",
          "183852.302500"
        ],
        "ContentTime": [
          "183205.828000",
          "183208.328000",
          "183210.828000",
          "183213.328000",
          "183215.828000",
          "183218.328000",
          "183220.828000",
          "183223.328000",
          "183225.828000",
          "183228.328000",
          "183230.828000",
          "183233.328000",
          "183235.828000",
          "183238.328000",
          "183240.828000",
          "183243.328000",
          "183245.828000",
          "183248.328000",
          "183250.828000",
          "183253.328000",
          "183255.828000",
          "183258.328000",
          "183300.828000",
          "183303.328000",
          "183305.828000",
          "183308.328000",
          "183310.828000",
          "183313.328000",
          "183315.828000",
          "183318.328000",
          "183320.828000",
          "183323.328000",
          "183325.828000",
          "183328.328000",
          "183330.828000",
          "183333.328000",
          "183335.828000",
          "183338.328000",
          "183340.828000",
          "183343.328000",
          "183345.828000",
          "183348.328000",
          "183350.828000",
          "183353.328000",
          "183355.828000",
          "183358.328000",
          "183400.828000",
          "183403.328000",
          "183405.828000",
          "183408.328000",
          "183410.828000",
          "183413.328000",
          "183415.828000",
          "183418.328000",
          "183420.828000",
          "183423.328000",
          "183425.828000",
          "183428.328000",
          "183430.828000",
          "183433.328000",
          "183435.828000",
          "183438.328000",
          "183440.828000",
          "183443.328000",
          "183445.828000",
          "183448.328000",
          "183450.828000",
          "183453.328000",
          "183455.828000",
          "183458.328000",
          "183500.828000",
          "183503.328000",
          "183505.828000",
          "183508.328000",
          "183510.828000",
          "183513.328000",
          "183515.828000",
          "183518.328000",
          "183520.828000",
          "183523.328000",
          "183525.828000",
          "183528.328000",
          "183530.828000",
          "183533.328000",
          "183535.828000",
          "183538.328000",
          "183540.828000",
          "183543.328000",
          "183545.828000",
          "183548.328000",
          "183550.828000",
          "183553.328000",
          "183555.828000",
          "183558.328000",
          "183600.828000",
          "183603.328000",
          "183605.828000",
          "183608.328000",
          "183610.828000",
          "183613.328000",
          "183615.828000",
          "183618.328000",
          "183620.828000",
          "183623.328000",
          "183625.828000",
          "183628.328000",
          "183630.828000",
          "183633.328000",
          "183635.828000",
          "183638.328000",
          "183640.828000",
          "183643.328000",
          "183645.828000",
          "183648.328000",
          "183650.828000",
          "183653.328000",
          "183655.828000",
          "183658.328000",
          "183700.828000",
          "183703.328000",
          "183705.828000",
          "183708.328000",
          "183710.828000",
          "183713.328000",
          "183715.828000",
          "183718.328000",
          "183720.828000",
          "183723.328000",
          "183725.828000",
          "183728.328000",
          "183730.828000",
          "183733.328000",
          "183735.828000",
          "183738.328000",
          "183740.828000",
          "183743.328000",
          "183745.828000",
          "183748.328000",
          "183750.828000",
          "183753.328000",
          "183755.828000",
          "183758.328000",
          "183800.828000",
          "183803.328000",
          "183805.828000",
          "183808.328000",
          "183810.828000",
          "183813.328000",
          "183815.828000",
          "183818.328000",
          "183820.828000",
          "183823.328000",
          "183825.828000",
          "183828.328000",
          "183830.828000",
          "183833.328000",
          "183835.828000",
          "183838.328000",
          "183840.828000",
          "183843.328000",
          "183845.828000",
          "183848.328000",
          "183850.828000",
          "183853.046000"
        ],
        "InstanceCreationTime": [
          "183205.828000",
          "183208.328000",
          "183210.828000",
          "183213.328000",
          "183215.828000",
          "183218.328000",
          "183220.828000",
          "183223.328000",
          "183225.828000",
          "183228.328000",
          "183230.828000",
          "183233.328000",
          "183235.828000",
          "183238.328000",
          "183240.828000",
          "183243.328000",
          "183245.828000",
          "183248.328000",
          "183250.828000",
          "183253.328000",
          "183255.828000",
          "183258.328000",
          "183300.828000",
          "183303.328000",
          "183305.828000",
          "183308.328000",
          "183310.828000",
          "183313.328000",
          "183315.828000",
          "183318.328000",
          "183320.828000",
          "183323.328000",
          "183325.828000",
          "183328.328000",
          "183330.828000",
          "183333.328000",
          "183335.828000",
          "183338.328000",
          "183340.828000",
          "183343.328000",
          "183345.828000",
          "183348.328000",
          "183350.828000",
          "183353.328000",
          "183355.828000",
          "183358.328000",
          "183400.828000",
          "183403.328000",
          "183405.828000",
          "183408.328000",
          "183410.828000",
          "183413.328000",
          "183415.828000",
          "183418.328000",
          "183420.828000",
          "183423.328000",
          "183425.828000",
          "183428.328000",
          "183430.828000",
          "183433.328000",
          "183435.828000",
          "183438.328000",
          "183440.828000",
          "183443.328000",
          "183445.828000",
          "183448.328000",
          "183450.828000",
          "183453.328000",
          "183455.828000",
          "183458.328000",
          "183500.828000",
          "183503.328000",
          "183505.828000",
          "183508.328000",
          "183510.828000",
          "183513.328000",
          "183515.828000",
          "183518.328000",
          "183520.828000",
          "183523.328000",
          "183525.828000",
          "183528.328000",
          "183530.828000",
          "183533.328000",
          "183535.828000",
          "183538.328000",
          "183540.828000",
          "183543.328000",
          "183545.828000",
          "183548.328000",
          "183550.828000",
          "183553.328000",
          "183555.828000",
          "183558.328000",
          "183600.828000",
          "183603.328000",
          "183605.828000",
          "183608.328000",
          "183610.828000",
          "183613.328000",
          "183615.828000",
          "183618.328000",
          "183620.828000",
          "183623.328000",
          "183625.828000",
          "183628.328000",
          "183630.828000",
          "183633.328000",
          "183635.828000",
          "183638.328000",
          "183640.828000",
          "183643.328000",
          "183645.828000",
          "183648.328000",
          "183650.828000",
          "183653.328000",
          "183655.828000",
          "183658.328000",
          "183700.828000",
          "183703.328000",
          "183705.828000",
          "183708.328000",
          "183710.828000",
          "183713.328000",
          "183715.828000",
          "183718.328000",
          "183720.828000",
          "183723.328000",
          "183725.828000",
          "183728.328000",
          "183730.828000",
          "183733.328000",
          "183735.828000",
          "183738.328000",
          "183740.828000",
          "183743.328000",
          "183745.828000",
          "183748.328000",
          "183750.828000",
          "183753.328000",
          "183755.828000",
          "183758.328000",
          "183800.828000",
          "183803.328000",
          "183805.828000",
          "183808.328000",
          "183810.828000",
          "183813.328000",
          "183815.828000",
          "183818.328000",
          "183820.828000",
          "183823.328000",
          "183825.828000",
          "183828.328000",
          "183830.828000",
          "183833.328000",
          "183835.828000",
          "183838.328000",
          "183840.828000",
          "183843.328000",
          "183845.828000",
          "183848.328000",
          "183850.828000",
          "183853.046000"
        ],
        "InstanceNumber": [
          1,
          2,
          3,
          4,
          5,
          6,
          7,
          8,
          9,
          10,
          11,
          12,
          13,
          14,
          15,
          16,
          17,
          18,
          19,
          20,
          21,
          22,
          23,
          24,
          25,
          26,
          27,
          28,
          29,
          30,
          31,
          32,
          33,
          34,
          35,
          36,
          37,
          38,
          39,
          40,
          41,
          42,
          43,
          44,
          45,
          46,
          47,
          48,
          49,
          50,
          51,
          52,
          53,
          54,
          55,
          56,
          57,
          58,
          59,
          60,
          61,
          62,
          63,
          64,
          65,
          66,
          67,
          68,
          69,
          70,
          71,
          72,
          73,
          74,
          75,
          76,
          77,
          78,
          79,
          80,
          81,
          82,
          83,
          84,
          85,
          86,
          87,
          88,
          89,
          90,
          91,
          92,
          93,
          94,
          95,
          96,
          97,
          98,
          99,
          100,
          101,
          102,
          103,
          104,
          105,
          106,
          107,
          108,
          109,
          110,
          111,
          112,
          113,
          114,
          115,
          116,
          117,
          118,
          119,
          120,
          121,
          122,
          123,
          124,
          125,
          126,
          127,
          128,
          129,
          130,
          131,
          132,
          133,
          134,
          135,
          136,
          137,
          138,
          139,
          140,
          141,
          142,
          143,
          144,
          145,
          146,
          147,
          148,
          149,
          150,
          151,
          152,
          153,
          154,
          155,
          156,
          157,
          158,
          159,
          160,
          161,
          162,
          163,
          164
        ],
        "LargestImagePixelValue": [
          1424,
          1404,
          1398,
          1387,
          1409,
          1397,
          1403,
          1382,
          1419,
          1390,
          1403,
          1372,
          1425,
          1395,
          1380,
          1376,
          1410,
          1400,
          1393,
          1398,
          1408,
          1399,
          1393,
          1414,
          1410,
          1403,
          1403,
          1387,
          1408,
          1400,
          1395,
          1396,
          1392,
          1413,
          1414,
          1403,
          1399,
          1409,
          1392,
          1417,
          1405,
          1388,
          1391,
          1428,
          1397,
          1392,
          1378,
          1417,
          1402,
          1422,
          1385,
          1405,
          1379,
          1384,
          1401,
          1391,
          1432,
          1406,
          1400,
          1428,
          1424,
          1410,
          1414,
          1403,
          1422,
          1389,
          1404,
          1417,
          1414,
          1422,
          1393,
          1382,
          1431,
          1408,
          1397,
          1400,
          1419,
          1375,
          1389,
          1400,
          1378,
          1401,
          1422,
          1379,
          1389,
          1423,
          1408,
          1418,
          1402,
          1415,
          1430,
          1420,
          1404,
          1436,
          1413,
          1426,
          1429,
          1399,
          1401,
          1404,
          1405,
          1414,
          1409,
          1403,
          1414,
          1380,
          1399,
          1421,
          1432,
          1418,
          1408,
          1427,
          1427,
          1415,
          1419,
          1397,
          1414,
          1387,
          1392,
          1427,
          1406,
          1404,
          1407,
          1416,
          1403,
          1408,
          1426,
          1410,
          1419,
          1419,
          1413,
          1403,
          1414,
          1402,
          1418,
          1394,
          1387,
          1411,
          1393,
          1382,
          1409,
          1397,
          1411,
          1416,
          1399,
          1415,
          1410,
          1414,
          1417,
          1425,
          1407,
          1408,
          1408,
          1415,
          1406,
          1410,
          1407,
          1377,
          1409,
          1416,
          1415,
          1412,
          1424,
          1422
        ],
        "WindowCenter": [
          614.0,
          613.0,
          610.0,
          611.0,
          611.0,
          612.0,
          612.0,
          612.0,
          611.0,
          611.0,
          612.0,
          611.0,
          611.0,
          611.0,
          611.0,
          613.0,
          612.0,
          612.0,
          612.0,
          612.0,
          612.0,
          611.0,
          611.0,
          611.0,
          612.0,
          611.0,
          613.0,
          612.0,
          612.0,
          613.0,
          611.0,
          612.0,
          611.0,
          612.0,
          612.0,
          612.0,
          611.0,
          613.0,
          612.0,
          612.0,
          612.0,
          612.0,
          611.0,
          612.0,
          611.0,
          611.0,
          612.0,
          612.0,
          613.0,
          612.0,
          612.0,
          612.0,
          612.0,
          612.0,
          613.0,
          612.0,
          613.0,
          612.0,
          612.0,
          613.0,
          613.0,
          611.0,
          612.0,
          612.0,
          613.0,
          613.0,
          611.0,
          612.0,
          612.0,
          612.0,
          611.0,
          612.0,
          612.0,
          613.0,
          611.0,
          611.0,
          612.0,
          612.0,
          611.0,
          611.0,
          612.0,
          612.0,
          611.0,
          613.0,
          612.0,
          612.0,
          612.0,
          612.0,
          612.0,
          613.0,
          612.0,
          611.0,
          613.0,
          612.0,
          612.0,
          613.0,
          612.0,
          612.0,
          612.0,
          612.0,
          612.0,
          612.0,
          612.0,
          613.0,
          613.0,
          614.0,
          612.0,
          614.0,
          613.0,
          613.0,
          613.0,
          613.0,
          613.0,
          613.0,
          611.0,
          611.0,
          612.0,
          613.0,
          612.0,
          613.0,
          613.0,
          613.0,
          612.0,
          612.0,
          613.0,
          613.0,
          612.0,
          613.0,
          613.0,
          613.0,
          612.0,
          613.0,
          612.0,
          612.0,
          613.0,
          613.0,
          613.0,
          612.0,
          612.0,
