{
  "aor": 0.0027460365853658538,
  "aqi": 0.003584926280487805,
  "bids_meta": {
    "AcquisitionMatrixPE": 64,
    "AcquisitionNumber": 1,
    "AcquisitionTime": "07:54:6.515000",
    "BandwidthPerPixelPhaseEncode": 26.483,
    "BaseResolution": 64,
    "BodyPartExamined": "HEAD",
    "CogAtlasID": "TODO",
    "ConversionSoftware": "dcm2niix",
    "ConversionSoftwareVersion": "v1.0.20171017 GCC6.3.0",
    "DerivedVendorReportedEchoSpacing": 0.000590001,
    "DeviceSerialNumber": "35177",
    "DwellTime": 4.1e-06,
    "EchoTime": 0.027,
    "EffectiveEchoSpacing": 0.000590001,
    "FlipAngle": 90,
    "ImageOrientationPatientDICOM": [
      0.997236,
      -0.0648561,
      0.0362523,
      0.0602086,
      0.991282,
      0.117194
    ],
    "ImageType": [
      "ORIGINAL",
      "PRIMARY",
      "M",
      "ND",
      "NORM",
      "MOSAIC"
    ],
    "InPlanePhaseEncodingDirectionDICOM": "COL",
    "InstitutionAddress": "Scott_Ave._4525_St._Louis_MO_US_63110",
    "InstitutionName": "Washington_University",
    "InstitutionalDepartmentName": "Department",
    "MRAcquisitionType": "2D",
    "MagneticFieldStrength": 3,
    "Manufacturer": "Siemens",
    "ManufacturersModelName": "TrioTim",
    "Modality": "MR",
    "PartialFourier": 1,
    "PatientPosition": "HFS",
    "PercentPhaseFOV": 100,
    "PhaseEncodingDirection": "j-",
    "PhaseEncodingSteps": 64,
    "PhaseResolution": 1,
    "PixelBandwidth": 1905,
    "ProcedureStepDescription": "head_GREENE",
    "ProtocolName": "ep2d_bold_ad_rest",
    "PulseSequenceDetails": "%SiemensSeq%_ep2d_bold",
    "ReceiveCoilName": "HeadMatrix",
    "ReconMatrixPE": 64,
    "RepetitionTime": 2.5,
    "SAR": 0.162777,
    "ScanOptions": "FS",
    "ScanningSequence": "EP",
    "SequenceName": "_epfid2d1_64",
    "SequenceVariant": "SK",
    "SeriesDescription": "ep2d_bold_ad_rest",
    "SeriesNumber": 7,
    "ShimSetting": [
      -208,
      -18758,
      7392,
      -133,
      -18,
      1559,
      790,
      -65
    ],
    "SliceThickness": 4,
    "SliceTiming": [
      1.255,
      0,
      1.335,
      0.08,
      1.4125,
      0.1575,
      1.49,
      0.235,
      1.57,
      0.315,
      1.6475,
      0.3925,
      1.725,
      0.4725,
      1.805,
      0.55,
      1.8825,
      0.6275,
      1.9625,
      0.7075,
      2.04,
      0.785,
      2.1175,
      0.8625,
      2.1975,
      0.9425,
      2.275,
      1.02,
      2.3525,
      1.0975,
      2.4325,
      1.1775
    ],
    "SoftwareVersions": "syngo_MR_B17",
    "SpacingBetweenSlices": 4,
    "StationName": "MRC35177",
    "TaskName": "restfixationadaptive",
    "TotalReadoutTime": 0.0371701,
    "TxRefAmp": 345.106,
    "dataset": "ds000256",
    "dcmmeta_affine": [
      [
        -3.988943576812744,
        0.2408342808485031,
        0.17414778470993042,
        119.68867492675781
      ],
      [
        0.2594242990016937,
        3.9651291370391846,
        0.4587474465370178,
        -146.45001220703125
      ],
      [
        0.14500916004180908,
        -0.46877413988113403,
        3.969787120819092,
        -17.988414764404297
      ],
      [
        0.0,
        0.0,
        0.0,
        1.0
      ]
    ],
    "dcmmeta_reorient_transform": [
      [
        0.0,
        -1.0,
        0.0,
        63.0
      ],
      [
        1.0,
        0.0,
        0.0,
        0.0
      ],
      [
        0.0,
        0.0,
        1.0,
        0.0
      ],
      [
        0.0,
        0.0,
        0.0,
        1.0
      ]
    ],
    "dcmmeta_shape": [
      64,
      64,
      32,
      164
    ],
    "dcmmeta_slice_dim": 2,
    "dcmmeta_version": 0.6,
    "global": {
      "const": {
        "AccessionNumber": ".",
        "AcquisitionMatrix": [
          64,
          0,
          0,
          64
        ],
        "AngioFlag": "N",
        "BitsAllocated": 16,
        "BitsStored": 12,
        "BodyPartExamined": "HEAD",
        "Columns": 384,
        "DeidentificationMethodCodeSequence": [
          {
            "CodeMeaning": "XNAT Edit Script",
            "CodeValue": "625500",
            "CodingSchemeDesignator": "XNAT",
            "CodingSchemeVersion": "0.1"
          }
        ],
        "EchoNumbers": 1,
        "EchoTime": 27.0,
        "EchoTrainLength": 1,
        "FlipAngle": 90.0,
        "HighBit": 11,
        "ImageOrientationPatient": [
          0.99723591031084,
          -0.0648560772519,
          0.0362522886173,
          0.06020856947662,
          0.99128230222318,
          0.11719353847673
        ],
        "ImagePositionPatient": [
          -811.62569973282,
          -696.26590485719,
          -145.72651643929
        ],
        "ImageType": [
          "ORIGINAL",
          "PRIMARY",
          "M",
          "ND",
          "NORM",
          "MOSAIC"
        ],
        "ImagedNucleus": "1H",
        "ImagingFrequency": 123.256177,
        "InPlanePhaseEncodingDirection": "COL",
        "MRAcquisitionType": "2D",
        "MagneticFieldStrength": 3.0,
        "Manufacturer": "SIEMENS",
        "ManufacturerModelName": "TrioTim",
        "Modality": "MR",
        "NumberOfAverages": 1.0,
        "NumberOfPhaseEncodingSteps": 64,
        "PercentPhaseFieldOfView": 100.0,
        "PercentSampling": 100.0,
        "PerformedProcedureStepStartTime": "074016.093000",
        "PhotometricInterpretation": "MONOCHROME2",
        "PixelBandwidth": 1905.0,
        "PixelRepresentation": 0,
        "PixelSpacing": [
          4.0,
          4.0
        ],
        "PositionReferenceIndicator": "",
        "ProtocolName": "ep2d_bold_ad_rest",
        "RepetitionTime": 2500.0,
        "Rows": 384,
        "SAR": 0.16277656032394,
        "SamplesPerPixel": 1,
        "ScanOptions": "FS",
        "ScanningSequence": "EP",
        "SequenceName": "*epfid2d1_64",
        "SequenceVariant": "SK",
        "SeriesDescription": "ep2d_bold_ad_rest",
        "SeriesNumber": 7,
        "SeriesTime": "075408.203000",
        "SliceLocation": -29.437570581578,
        "SliceThickness": 4.0,
        "SmallestImagePixelValue": 0,
        "SoftwareVersions": "syngo MR B17",
        "SpacingBetweenSlices": 3.9999983507044,
        "SpecificCharacterSet": "ISO_IR 100",
        "StudyID": "1",
        "StudyTime": "074016.046000",
        "TransmitCoilName": "Body",
        "VariableFlipAngleFlag": "N",
        "WindowCenterWidthExplanation": "Algo1",
        "dBdt": 0.0
      },
      "slices": {}
    },
    "modality": "bold",
    "subject_id": "CTS237",
    "task_id": "restfixationadaptive",
    "time": {
      "samples": {
        "AcquisitionNumber": [
          1,
          2,
          3,
          4,
          5,
          6,
          7,
          8,
          9,
          10,
          11,
          12,
          13,
          14,
          15,
          16,
          17,
          18,
          19,
          20,
          21,
          22,
          23,
          24,
          25,
          26,
          27,
          28,
          29,
          30,
          31,
          32,
          33,
          34,
          35,
          36,
          37,
          38,
          39,
          40,
          41,
          42,
          43,
          44,
          45,
          46,
          47,
          48,
          49,
          50,
          51,
          52,
          53,
          54,
          55,
          56,
          57,
          58,
          59,
          60,
          61,
          62,
          63,
          64,
          65,
          66,
          67,
          68,
          69,
          70,
          71,
          72,
          73,
          74,
          75,
          76,
          77,
          78,
          79,
          80,
          81,
          82,
          83,
          84,
          85,
          86,
          87,
          88,
          89,
          90,
          91,
          92,
          93,
          94,
          95,
          96,
          97,
          98,
          99,
          100,
          101,
          102,
          103,
          104,
          105,
          106,
          107,
          108,
          109,
          110,
          111,
          112,
          113,
          114,
          115,
          116,
          117,
          118,
          119,
          120,
          121,
          122,
          123,
          124,
          125,
          126,
          127,
          128,
          129,
          130,
          131,
          132,
          133,
          134,
          135,
          136,
          137,
          138,
          139,
          140,
          141,
          142,
          143,
          144,
          145,
          146,
          147,
          148,
          149,
          150,
          151,
          152,
          153,
          154,
          155,
          156,
          157,
          158,
          159,
          160,
          161,
          162,
          163,
          164
        ],
        "AcquisitionTime": [
          "075406.515000",
          "075409.025000",
          "075411.535000",
          "075414.045000",
          "075416.555000",
          "075419.065000",
          "075421.575000",
          "075424.085000",
          "075426.595000",
          "075429.105000",
          "075431.615000",
          "075434.125000",
          "075436.635000",
          "075439.145000",
          "075441.655000",
          "075444.165000",
          "075446.675000",
          "075449.187500",
          "075451.697500",
          "075454.207500",
          "075456.717500",
          "075459.227500",
          "075501.737500",
          "075504.247500",
          "075506.757500",
          "075509.267500",
          "075511.777500",
          "075514.287500",
          "075516.797500",
          "075519.307500",
          "075521.817500",
          "075524.327500",
          "075526.837500",
          "075529.347500",
          "075531.857500",
          "075534.367500",
          "075536.877500",
          "075539.387500",
          "075541.897500",
          "075544.407500",
          "075546.917500",
          "075549.427500",
          "075551.937500",
          "075554.447500",
          "075556.957500",
          "075559.467500",
          "075601.977500",
          "075604.487500",
          "075606.997500",
          "075609.507500",
          "075612.017500",
          "075614.527500",
          "075617.037500",
          "075619.547500",
          "075622.057500",
          "075624.567500",
          "075627.077500",
          "075629.587500",
          "075632.097500",
          "075634.607500",
          "075637.117500",
          "075639.627500",
          "075642.137500",
          "075644.647500",
          "075647.157500",
          "075649.667500",
          "075652.177500",
          "075654.687500",
          "075657.197500",
          "075659.707500",
          "075702.217500",
          "075704.727500",
          "075707.237500",
          "075709.747500",
          "075712.257500",
          "075714.767500",
          "075717.277500",
          "075719.787500",
          "075722.297500",
          "075724.807500",
          "075727.320000",
          "075729.830000",
          "075732.340000",
          "075734.850000",
          "075737.360000",
          "075739.870000",
          "075742.380000",
          "075744.890000",
          "075747.400000",
          "075749.910000",
          "075752.420000",
          "075754.930000",
          "075757.440000",
          "075759.950000",
          "075802.460000",
          "075804.970000",
          "075807.480000",
          "075809.990000",
          "075812.500000",
          "075815.010000",
          "075817.520000",
          "075820.030000",
          "075822.540000",
          "075825.050000",
          "075827.560000",
          "075830.070000",
          "075832.580000",
          "075835.090000",
          "075837.600000",
          "075840.110000",
          "075842.620000",
          "075845.130000",
          "075847.640000",
          "075850.150000",
          "075852.660000",
          "075855.170000",
          "075857.680000",
          "075900.190000",
          "075902.700000",
          "075905.210000",
          "075907.720000",
          "075910.230000",
          "075912.740000",
          "075915.250000",
          "075917.760000",
          "075920.270000",
          "075922.780000",
          "075925.290000",
          "075927.800000",
          "075930.310000",
          "075932.820000",
          "075935.330000",
          "075937.840000",
          "075940.350000",
          "075942.860000",
          "075945.370000",
          "075947.880000",
          "075950.390000",
          "075952.900000",
          "075955.410000",
          "075957.920000",
          "080000.430000",
          "080002.942500",
          "080005.452500",
          "080007.962500",
          "080010.472500",
          "080012.982500",
          "080015.492500",
          "080018.002500",
          "080020.512500",
          "080023.022500",
          "080025.532500",
          "080028.042500",
          "080030.552500",
          "080033.062500",
          "080035.572500",
          "080038.082500",
          "080040.592500",
          "080043.102500",
          "080045.612500",
          "080048.122500",
          "080050.632500",
          "080053.142500",
          "080055.652500"
        ],
        "ContentTime": [
          "075408.203000",
          "075410.703000",
          "075413.203000",
          "075415.703000",
          "075418.203000",
          "075420.703000",
          "075423.203000",
          "075425.703000",
          "075428.203000",
          "075430.703000",
          "075433.203000",
          "075435.703000",
          "075438.203000",
          "075440.703000",
          "075443.203000",
          "075445.703000",
          "075448.203000",
          "075450.703000",
          "075453.203000",
          "075455.703000",
          "075458.203000",
          "075500.703000",
          "075503.203000",
          "075505.703000",
          "075508.203000",
          "075510.703000",
          "075513.203000",
          "075515.703000",
          "075518.203000",
          "075520.703000",
          "075523.203000",
          "075525.703000",
          "075528.203000",
          "075530.703000",
          "075533.203000",
          "075535.703000",
          "075538.203000",
          "075540.703000",
          "075543.203000",
          "075545.703000",
          "075548.203000",
          "075550.703000",
          "075553.203000",
          "075555.703000",
          "075558.203000",
          "075600.703000",
          "075603.203000",
          "075605.703000",
          "075608.203000",
          "075610.703000",
          "075613.203000",
          "075615.703000",
          "075618.203000",
          "075620.703000",
          "075623.203000",
          "075625.703000",
          "075628.203000",
          "075630.703000",
          "075633.203000",
          "075635.703000",
          "075638.203000",
          "075640.703000",
          "075643.203000",
          "075645.703000",
          "075648.203000",
          "075650.703000",
          "075653.203000",
          "075655.703000",
          "075658.203000",
          "075700.703000",
          "075703.203000",
          "075705.703000",
          "075708.203000",
          "075710.703000",
          "075713.203000",
          "075715.703000",
          "075718.203000",
          "075720.703000",
          "075723.203000",
          "075725.703000",
          "075728.203000",
          "075730.703000",
          "075733.203000",
          "075735.703000",
          "075738.203000",
          "075740.703000",
          "075743.203000",
          "075745.703000",
          "075748.203000",
          "075750.703000",
          "075753.203000",
          "075755.703000",
          "075758.203000",
          "075800.703000",
          "075803.203000",
          "075805.703000",
          "075808.203000",
          "075810.703000",
          "075813.203000",
          "075815.703000",
          "075818.203000",
          "075820.703000",
          "075823.203000",
          "075825.703000",
          "075828.203000",
          "075830.703000",
          "075833.203000",
          "075835.703000",
          "075838.203000",
          "075840.703000",
          "075843.203000",
          "075845.703000",
          "075848.203000",
          "075850.703000",
          "075853.203000",
          "075855.703000",
          "075858.203000",
          "075900.703000",
          "075903.203000",
          "075905.703000",
          "075908.203000",
          "075910.703000",
          "075913.203000",
          "075915.703000",
          "075918.203000",
          "075920.703000",
          "075923.203000",
          "075925.703000",
          "075928.203000",
          "075930.703000",
          "075933.203000",
          "075935.703000",
          "075938.203000",
          "075940.703000",
          "075943.203000",
          "075945.703000",
          "075948.203000",
          "075950.703000",
          "075953.203000",
          "075955.703000",
          "075958.203000",
          "080000.703000",
          "080003.203000",
          "080005.703000",
          "080008.203000",
          "080010.703000",
          "080013.203000",
          "080015.703000",
          "080018.203000",
          "080020.703000",
          "080023.203000",
          "080025.703000",
          "080028.203000",
          "080030.703000",
          "080033.203000",
          "080035.703000",
          "080038.203000",
          "080040.703000",
          "080043.203000",
          "080045.703000",
          "080048.203000",
          "080050.703000",
          "080053.203000",
          "080055.500000"
        ],
        "InstanceCreationTime": [
          "075408.203000",
          "075410.703000",
          "075413.203000",
          "075415.703000",
          "075418.203000",
          "075420.703000",
          "075423.203000",
          "075425.703000",
          "075428.203000",
          "075430.703000",
          "075433.203000",
          "075435.703000",
          "075438.203000",
          "075440.703000",
          "075443.203000",
          "075445.703000",
          "075448.203000",
          "075450.703000",
          "075453.203000",
          "075455.703000",
          "075458.203000",
          "075500.703000",
          "075503.203000",
          "075505.703000",
          "075508.203000",
          "075510.703000",
          "075513.203000",
          "075515.703000",
          "075518.203000",
          "075520.703000",
          "075523.203000",
          "075525.703000",
          "075528.203000",
          "075530.703000",
          "075533.203000",
          "075535.703000",
          "075538.203000",
          "075540.703000",
          "075543.203000",
          "075545.703000",
          "075548.203000",
          "075550.703000",
          "075553.203000",
          "075555.703000",
          "075558.203000",
          "075600.703000",
          "075603.203000",
          "075605.703000",
          "075608.203000",
          "075610.703000",
          "075613.203000",
          "075615.703000",
          "075618.203000",
          "075620.703000",
          "075623.203000",
          "075625.703000",
          "075628.203000",
          "075630.703000",
          "075633.203000",
          "075635.703000",
          "075638.203000",
          "075640.703000",
          "075643.203000",
          "075645.703000",
          "075648.203000",
          "075650.703000",
          "075653.203000",
          "075655.703000",
          "075658.203000",
          "075700.703000",
          "075703.203000",
          "075705.703000",
          "075708.203000",
          "075710.703000",
          "075713.203000",
          "075715.703000",
          "075718.203000",
          "075720.703000",
          "075723.203000",
          "075725.703000",
          "075728.203000",
          "075730.703000",
          "075733.203000",
          "075735.703000",
          "075738.203000",
          "075740.703000",
          "075743.203000",
          "075745.703000",
          "075748.203000",
          "075750.703000",
          "075753.203000",
          "075755.703000",
          "075758.203000",
          "075800.703000",
          "075803.203000",
          "075805.703000",
          "075808.203000",
          "075810.703000",
          "075813.203000",
          "075815.703000",
          "075818.203000",
          "075820.703000",
          "075823.203000",
          "075825.703000",
          "075828.203000",
          "075830.703000",
          "075833.203000",
          "075835.703000",
          "075838.203000",
          "075840.703000",
          "075843.203000",
          "075845.703000",
          "075848.203000",
          "075850.703000",
          "075853.203000",
          "075855.703000",
          "075858.203000",
          "075900.703000",
          "075903.203000",
          "075905.703000",
          "075908.203000",
          "075910.703000",
          "075913.203000",
          "075915.703000",
          "075918.203000",
          "075920.703000",
          "075923.203000",
          "075925.703000",
          "075928.203000",
          "075930.703000",
          "075933.203000",
          "075935.703000",
          "075938.203000",
          "075940.703000",
          "075943.203000",
          "075945.703000",
          "075948.203000",
          "075950.703000",
          "075953.203000",
          "075955.703000",
          "075958.203000",
          "080000.703000",
          "080003.203000",
          "080005.703000",
          "080008.203000",
          "080010.703000",
          "080013.203000",
          "080015.703000",
          "080018.203000",
          "080020.703000",
          "080023.203000",
          "080025.703000",
          "080028.203000",
          "080030.703000",
          "080033.203000",
          "080035.703000",
          "080038.203000",
          "080040.703000",
          "080043.203000",
          "080045.703000",
          "080048.203000",
          "080050.703000",
          "080053.203000",
          "080055.500000"
        ],
        "InstanceNumber": [
          1,
          2,
          3,
          4,
          5,
          6,
          7,
          8,
          9,
          10,
          11,
          12,
          13,
          14,
          15,
          16,
          17,
          18,
          19,
          20,
          21,
          22,
          23,
          24,
          25,
          26,
          27,
          28,
          29,
          30,
          31,
          32,
          33,
          34,
          35,
          36,
          37,
          38,
          39,
          40,
          41,
          42,
          43,
          44,
          45,
          46,
          47,
          48,
          49,
          50,
          51,
          52,
          53,
          54,
          55,
          56,
          57,
          58,
          59,
          60,
          61,
          62,
          63,
          64,
          65,
          66,
          67,
          68,
          69,
          70,
          71,
          72,
          73,
          74,
          75,
          76,
          77,
          78,
          79,
          80,
          81,
          82,
          83,
          84,
          85,
          86,
          87,
          88,
          89,
          90,
          91,
          92,
          93,
          94,
          95,
          96,
          97,
          98,
          99,
          100,
          101,
          102,
          103,
          104,
          105,
          106,
          107,
          108,
          109,
          110,
          111,
          112,
          113,
          114,
          115,
          116,
          117,
          118,
          119,
          120,
          121,
          122,
          123,
          124,
          125,
          126,
          127,
          128,
          129,
          130,
          131,
          132,
          133,
          134,
          135,
          136,
          137,
          138,
          139,
          140,
          141,
          142,
          143,
          144,
          145,
          146,
          147,
          148,
          149,
          150,
          151,
          152,
          153,
          154,
          155,
          156,
          157,
          158,
          159,
          160,
          161,
          162,
          163,
          164
        ],
        "LargestImagePixelValue": [
          1896,
          1847,
          1937,
          1868,
          1887,
          1839,
          1808,
          1847,
          1904,
          1910,
          1839,
          1821,
          1884,
          1910,
          1838,
          1888,
          1898,
          1930,
          1870,
          1902,
          1899,
          1859,
          1891,
          1896,
          1908,
          1897,
          1897,
          1910,
          1896,
          1891,
          1940,
          1896,
          1890,
          1899,
          1916,
          1892,
          1929,
          1941,
          1946,
          1959,
          1932,
          1928,
          1946,
          1947,
          1921,
          1849,
          1948,
          1951,
          1929,
          1906,
          1926,
          1967,
          1917,
          1949,
          1979,
          1937,
          1909,
          1926,
          1978,
          1929,
          1946,
          1933,
          1918,
          1885,
          1919,
          1932,
          1934,
          1917,
          1939,
          1932,
          1901,
          1866,
          1883,
          1957,
          1925,
          1941,
          1870,
          1790,
          1961,
          1957,
          1909,
          1871,
          1830,
          1823,
          1906,
          1956,
          1791,
          1867,
          1885,
          1992,
          1922,
          1909,
          1970,
          1915,
          1947,
          1903,
          1954,
          1921,
          1876,
          1939,
          1950,
          1856,
          1859,
          1878,
          1963,
          1972,
          1814,
          1891,
          1886,
          1830,
          1818,
          1944,
          1939,
          1847,
          1881,
          1943,
          1878,
          1861,
          1903,
          1953,
          1845,
          1952,
          1976,
          1952,
          1938,
          1885,
          1884,
          1917,
          1925,
          1963,
          1890,
          1926,
          1959,
          1956,
          1913,
          1874,
          1937,
          1971,
          1915,
          1900,
          1932,
          1888,
          1936,
          1876,
          1967,
          1913,
          1846,
          1950,
          1951,
          1914,
          1988,
          1895,
          1891,
          1898,
          1903,
          1914,
          1791,
          1865,
          1924,
          1920,
          1940,
          1872,
          1858,
          1871
        ],
        "WindowCenter": [
          695.0,
          693.0,
          693.0,
          692.0,
          692.0,
          693.0,
          693.0,
          695.0,
          694.0,
          694.0,
          692.0,
          694.0,
          695.0,
          694.0,
          693.0,
          694.0,
          694.0,
          693.0,
          694.0,
          693.0,
          694.0,
          692.0,
          697.0,
          694.0,
          693.0,
          693.0,
          697.0,
          693.0,
          693.0,
          693.0,
          693.0,
          697.0,
          696.0,
          694.0,
          694.0,
          696.0,
          693.0,
          693.0,
          693.0,
          693.0,
          692.0,
          692.0,
          691.0,
          691.0,
          693.0,
          694.0,
          695.0,
          692.0,
          693.0,
          696.0,
          692.0,
          694.0,
          693.0,
          694.0,
          692.0,
          692.0,
          696.0,
          692.0,
          693.0,
          696.0,
          698.0,
          692.0,
          692.0,
          696.0,
          696.0,
          693.0,
          693.0,
          693.0,
          698.0,
          697.0,
          693.0,
          694.0,
          693.0,
          698.0,
          693.0,
          695.0,
          692.0,
          695.0,
          698.0,
          692.0,
          692.0,
          692.0,
          694.0,
          692.0,
          692.0,
          691.0,
          691.0,
          692.0,
          693.0,
          692.0,
          692.0,
          693.0,
          692.0,
          693.0,
          692.0,
          693.0,
          693.0,
          693.0,
          693.0,
          693.0,
          693.0,
          698.0,
          692.0,
          690.0,
          695.0,
          691.0,
          692.0,
          693.0,
          691.0,
          693.0,
          693.0,
          693.0,
          693.0,
          692.0,
          691.0,
          693.0,
          693.0,
          692.0,
          693.0,
          692.0,
          693.0,
          692.0,
          694.0,
          693.0,
          692.0,
          691.0,
          692.0,
          693.0,
          691.0,
          697.0,
          693.0,
          693.0,
          692.0,
          692.0,
          693.0,
          693.0,
          695.0,
          693.0,
          693.0,
          692.0,
          692.0,
          691.0,
          692.0,
          696.0,
          696.0,
          693.0,
          698.0,
          693.0,
          694.0,
