{
  "aor": 0.01944432926829268,
  "aqi": 0.02076903768292683,
  "bids_meta": {
    "AcquisitionMatrixPE": 64,
    "AcquisitionNumber": 1,
    "AcquisitionTime": "08:59:7.747500",
    "BandwidthPerPixelPhaseEncode": 26.483,
    "BaseResolution": 64,
    "BodyPartExamined": "HEAD",
    "CogAtlasID": "TODO",
    "ConversionSoftware": "dcm2niix",
    "ConversionSoftwareVersion": "v1.0.20171017 GCC6.3.0",
    "DerivedVendorReportedEchoSpacing": 0.000590001,
    "DeviceSerialNumber": "35177",
    "DwellTime": 4.1e-06,
    "EchoTime": 0.027,
    "EffectiveEchoSpacing": 0.000590001,
    "FlipAngle": 90,
    "ImageOrientationPatientDICOM": [
      0.998615,
      0.00901956,
      -0.0518278,
      0.00462592,
      0.96632,
      0.2573
    ],
    "ImageType": [
      "ORIGINAL",
      "PRIMARY",
      "M",
      "ND",
      "NORM",
      "MOSAIC"
    ],
    "InPlanePhaseEncodingDirectionDICOM": "COL",
    "InstitutionAddress": "Scott_Ave._4525_St._Louis_MO_US_63110",
    "InstitutionName": "Washington_University",
    "InstitutionalDepartmentName": "Department",
    "MRAcquisitionType": "2D",
    "MagneticFieldStrength": 3,
    "Manufacturer": "Siemens",
    "ManufacturersModelName": "TrioTim",
    "Modality": "MR",
    "PartialFourier": 1,
    "PatientPosition": "HFS",
    "PercentPhaseFOV": 100,
    "PhaseEncodingDirection": "j-",
    "PhaseEncodingSteps": 64,
    "PhaseResolution": 1,
    "PixelBandwidth": 1905,
    "ProcedureStepDescription": "head_GREENE",
    "ProtocolName": "ep2d_bold_adaptive_feedback_movie_2B",
    "PulseSequenceDetails": "%SiemensSeq%_ep2d_bold",
    "ReceiveCoilName": "HeadMatrix",
    "ReconMatrixPE": 64,
    "RepetitionTime": 2.5,
    "SAR": 0.136964,
    "ScanOptions": "FS",
    "ScanningSequence": "EP",
    "SequenceName": "_epfid2d1_64",
    "SequenceVariant": "SK",
    "SeriesDescription": "ep2d_bold_adaptive_feedback_movie_2B",
    "SeriesNumber": 13,
    "ShimSetting": [
      -285,
      -19617,
      7988,
      246,
      -63,
      -445,
      266,
      128
    ],
    "SliceThickness": 4,
    "SliceTiming": [
      1.255,
      0,
      1.3325,
      0.0775,
      1.4125,
      0.1575,
      1.49,
      0.235,
      1.5675,
      0.315,
      1.6475,
      0.3925,
      1.725,
      0.47,
      1.805,
      0.55,
      1.8825,
      0.6275,
      1.96,
      0.705,
      2.04,
      0.785,
      2.1175,
      0.8625,
      2.195,
      0.94,
      2.275,
      1.02,
      2.3525,
      1.0975,
      2.4325,
      1.1775
    ],
    "SoftwareVersions": "syngo_MR_B17",
    "SpacingBetweenSlices": 4,
    "StationName": "MRC35177",
    "TaskName": "restmovieadaptive",
    "TotalReadoutTime": 0.0371701,
    "TxRefAmp": 341.427,
    "dataset": "ds000256",
    "dcmmeta_affine": [
      [
        -3.9944612979888916,
        0.018503684550523758,
        -0.2096118927001953,
        137.54656982421875
      ],
      [
        -0.036078255623579025,
        3.865281820297241,
        1.028734564781189,
        -143.70362854003906
      ],
      [
        -0.20731116831302643,
        -1.0292010307312012,
        3.8597612380981445,
        11.478185653686523
      ],
      [
        0.0,
        0.0,
        0.0,
        1.0
      ]
    ],
    "dcmmeta_reorient_transform": [
      [
        0.0,
        -1.0,
        0.0,
        63.0
      ],
      [
        1.0,
        0.0,
        0.0,
        0.0
      ],
      [
        0.0,
        0.0,
        1.0,
        0.0
      ],
      [
        0.0,
        0.0,
        0.0,
        1.0
      ]
    ],
    "dcmmeta_shape": [
      64,
      64,
      32,
      164
    ],
    "dcmmeta_slice_dim": 2,
    "dcmmeta_version": 0.6,
    "global": {
      "const": {
        "AccessionNumber": ".",
        "AcquisitionMatrix": [
          64,
          0,
          0,
          64
        ],
        "AngioFlag": "N",
        "BitsAllocated": 16,
        "BitsStored": 12,
        "BodyPartExamined": "HEAD",
        "Columns": 384,
        "DeidentificationMethodCodeSequence": [
          {
            "CodeMeaning": "XNAT Edit Script",
            "CodeValue": "625500",
            "CodingSchemeDesignator": "XNAT",
            "CodingSchemeVersion": "0.1"
          }
        ],
        "EchoNumbers": 1,
        "EchoTime": 27.0,
        "EchoTrainLength": 1,
        "FlipAngle": 90.0,
        "HighBit": 11,
        "ImageOrientationPatient": [
          0.99861530496478,
          0.0090195635161,
          -0.0518277933553,
          0.00462592096546,
          0.96632043539885,
          0.2573002467659
        ],
        "ImagePositionPatient": [
          -780.78668392348,
          -724.02671631939,
          -184.86384695068
        ],
        "ImageType": [
          "ORIGINAL",
          "PRIMARY",
          "M",
          "ND",
          "NORM",
          "MOSAIC"
        ],
        "ImagedNucleus": "1H",
        "ImagingFrequency": 123.25594,
        "InPlanePhaseEncodingDirection": "COL",
        "MRAcquisitionType": "2D",
        "MagneticFieldStrength": 3.0,
        "Manufacturer": "SIEMENS",
        "ManufacturerModelName": "TrioTim",
        "Modality": "MR",
        "NumberOfAverages": 1.0,
        "NumberOfPhaseEncodingSteps": 64,
        "PercentPhaseFieldOfView": 100.0,
        "PercentSampling": 100.0,
        "PerformedProcedureStepStartTime": "080144.500000",
        "PhotometricInterpretation": "MONOCHROME2",
        "PixelBandwidth": 1905.0,
        "PixelRepresentation": 0,
        "PixelSpacing": [
          4.0,
          4.0
        ],
        "PositionReferenceIndicator": "",
        "ProtocolName": "ep2d_bold_adaptive_feedback_movie_2B",
        "RepetitionTime": 2500.0,
        "Rows": 384,
        "SAR": 0.13696425289365,
        "SamplesPerPixel": 1,
        "ScanOptions": "FS",
        "ScanningSequence": "EP",
        "SequenceName": "*epfid2d1_64",
        "SequenceVariant": "SK",
        "SeriesDescription": "ep2d_bold_adaptive_feedback_movie_2B",
        "SeriesNumber": 13,
        "SeriesTime": "085909.328000",
        "SliceLocation": -33.090318118336,
        "SliceThickness": 4.0,
        "SmallestImagePixelValue": 0,
        "SoftwareVersions": "syngo MR B17",
        "SpacingBetweenSlices": 3.9999986890626,
        "SpecificCharacterSet": "ISO_IR 100",
        "StudyID": "1",
        "StudyTime": "080144.453000",
        "TransmitCoilName": "Body",
        "VariableFlipAngleFlag": "N",
        "WindowCenterWidthExplanation": "Algo1",
        "dBdt": 0.0
      },
      "slices": {}
    },
    "modality": "bold",
    "subject_id": "CTS210",
    "task_id": "restmovieadaptive",
    "time": {
      "samples": {
        "AcquisitionNumber": [
          1,
          2,
          3,
          4,
          5,
          6,
          7,
          8,
          9,
          10,
          11,
          12,
          13,
          14,
          15,
          16,
          17,
          18,
          19,
          20,
          21,
          22,
          23,
          24,
          25,
          26,
          27,
          28,
          29,
          30,
          31,
          32,
          33,
          34,
          35,
          36,
          37,
          38,
          39,
          40,
          41,
          42,
          43,
          44,
          45,
          46,
          47,
          48,
          49,
          50,
          51,
          52,
          53,
          54,
          55,
          56,
          57,
          58,
          59,
          60,
          61,
          62,
          63,
          64,
          65,
          66,
          67,
          68,
          69,
          70,
          71,
          72,
          73,
          74,
          75,
          76,
          77,
          78,
          79,
          80,
          81,
          82,
          83,
          84,
          85,
          86,
          87,
          88,
          89,
          90,
          91,
          92,
          93,
          94,
          95,
          96,
          97,
          98,
          99,
          100,
          101,
          102,
          103,
          104,
          105,
          106,
          107,
          108,
          109,
          110,
          111,
          112,
          113,
          114,
          115,
          116,
          117,
          118,
          119,
          120,
          121,
          122,
          123,
          124,
          125,
          126,
          127,
          128,
          129,
          130,
          131,
          132,
          133,
          134,
          135,
          136,
          137,
          138,
          139,
          140,
          141,
          142,
          143,
          144,
          145,
          146,
          147,
          148,
          149,
          150,
          151,
          152,
          153,
          154,
          155,
          156,
          157,
          158,
          159,
          160,
          161,
          162,
          163,
          164
        ],
        "AcquisitionTime": [
          "085907.747500",
          "085910.257500",
          "085912.767500",
          "085915.277500",
          "085917.787500",
          "085920.297500",
          "085922.807500",
          "085925.317500",
          "085927.827500",
          "085930.337500",
          "085932.847500",
          "085935.357500",
          "085937.867500",
          "085940.377500",
          "085942.887500",
          "085945.397500",
          "085947.907500",
          "085950.417500",
          "085952.927500",
          "085955.437500",
          "085957.947500",
          "090000.457500",
          "090002.967500",
          "090005.477500",
          "090007.987500",
          "090010.497500",
          "090013.007500",
          "090015.517500",
          "090018.027500",
          "090020.537500",
          "090023.047500",
          "090025.557500",
          "090028.067500",
          "090030.577500",
          "090033.090000",
          "090035.600000",
          "090038.110000",
          "090040.620000",
          "090043.130000",
          "090045.640000",
          "090048.150000",
          "090050.660000",
          "090053.170000",
          "090055.680000",
          "090058.190000",
          "090100.700000",
          "090103.210000",
          "090105.720000",
          "090108.230000",
          "090110.740000",
          "090113.250000",
          "090115.760000",
          "090118.270000",
          "090120.780000",
          "090123.290000",
          "090125.800000",
          "090128.310000",
          "090130.820000",
          "090133.330000",
          "090135.840000",
          "090138.350000",
          "090140.860000",
          "090143.370000",
          "090145.880000",
          "090148.390000",
          "090150.900000",
          "090153.410000",
          "090155.920000",
          "090158.430000",
          "090200.940000",
          "090203.450000",
          "090205.960000",
          "090208.470000",
          "090210.980000",
          "090213.490000",
          "090216.000000",
          "090218.510000",
          "090221.020000",
          "090223.530000",
          "090226.040000",
          "090228.550000",
          "090231.060000",
          "090233.570000",
          "090236.080000",
          "090238.590000",
          "090241.100000",
          "090243.610000",
          "090246.120000",
          "090248.630000",
          "090251.140000",
          "090253.650000",
          "090256.160000",
          "090258.670000",
          "090301.180000",
          "090303.690000",
          "090306.200000",
          "090308.712500",
          "090311.222500",
          "090313.732500",
          "090316.242500",
          "090318.752500",
          "090321.262500",
          "090323.772500",
          "090326.282500",
          "090328.792500",
          "090331.302500",
          "090333.812500",
          "090336.322500",
          "090338.832500",
          "090341.342500",
          "090343.852500",
          "090346.362500",
          "090348.872500",
          "090351.382500",
          "090353.892500",
          "090356.402500",
          "090358.912500",
          "090401.422500",
          "090403.932500",
          "090406.442500",
          "090408.952500",
          "090411.462500",
          "090413.972500",
          "090416.482500",
          "090418.992500",
          "090421.502500",
          "090424.012500",
          "090426.522500",
          "090429.032500",
          "090431.542500",
          "090434.052500",
          "090436.562500",
          "090439.072500",
          "090441.582500",
          "090444.092500",
          "090446.602500",
          "090449.112500",
          "090451.622500",
          "090454.132500",
          "090456.642500",
          "090459.152500",
          "090501.662500",
          "090504.172500",
          "090506.682500",
          "090509.192500",
          "090511.702500",
          "090514.212500",
          "090516.722500",
          "090519.232500",
          "090521.742500",
          "090524.252500",
          "090526.762500",
          "090529.272500",
          "090531.782500",
          "090534.292500",
          "090536.802500",
          "090539.312500",
          "090541.822500",
          "090544.335000",
          "090546.845000",
          "090549.355000",
          "090551.865000",
          "090554.375000",
          "090556.885000"
        ],
        "ContentTime": [
          "085909.328000",
          "085911.828000",
          "085914.328000",
          "085916.828000",
          "085919.328000",
          "085921.828000",
          "085924.328000",
          "085926.828000",
          "085929.328000",
          "085931.828000",
          "085934.328000",
          "085936.828000",
          "085939.328000",
          "085941.828000",
          "085944.328000",
          "085946.828000",
          "085949.328000",
          "085951.828000",
          "085954.328000",
          "085956.828000",
          "085959.328000",
          "090001.828000",
          "090004.328000",
          "090006.828000",
          "090009.328000",
          "090011.828000",
          "090014.328000",
          "090016.828000",
          "090019.328000",
          "090021.828000",
          "090024.328000",
          "090026.828000",
          "090029.328000",
          "090031.828000",
          "090034.328000",
          "090036.828000",
          "090039.328000",
          "090041.828000",
          "090044.328000",
          "090046.828000",
          "090049.328000",
          "090051.828000",
          "090054.328000",
          "090056.828000",
          "090059.328000",
          "090101.828000",
          "090104.328000",
          "090106.828000",
          "090109.328000",
          "090111.828000",
          "090114.328000",
          "090116.828000",
          "090119.328000",
          "090121.828000",
          "090124.328000",
          "090126.828000",
          "090129.328000",
          "090131.828000",
          "090134.328000",
          "090136.828000",
          "090139.328000",
          "090141.828000",
          "090144.328000",
          "090146.828000",
          "090149.328000",
          "090151.828000",
          "090154.328000",
          "090156.828000",
          "090159.328000",
          "090201.828000",
          "090204.328000",
          "090206.828000",
          "090209.328000",
          "090211.828000",
          "090214.328000",
          "090216.828000",
          "090219.328000",
          "090221.828000",
          "090224.328000",
          "090226.828000",
          "090229.328000",
          "090231.828000",
          "090234.328000",
          "090236.828000",
          "090239.328000",
          "090241.828000",
          "090244.328000",
          "090246.828000",
          "090249.328000",
          "090251.828000",
          "090254.328000",
          "090256.828000",
          "090259.328000",
          "090301.828000",
          "090304.328000",
          "090306.828000",
          "090309.328000",
          "090311.828000",
          "090314.328000",
          "090316.828000",
          "090319.328000",
          "090321.828000",
          "090324.328000",
          "090326.828000",
          "090329.328000",
          "090331.828000",
          "090334.328000",
          "090336.828000",
          "090339.328000",
          "090341.828000",
          "090344.328000",
          "090346.828000",
          "090349.328000",
          "090351.828000",
          "090354.328000",
          "090356.828000",
          "090359.328000",
          "090401.828000",
          "090404.328000",
          "090406.828000",
          "090409.328000",
          "090411.828000",
          "090414.328000",
          "090416.828000",
          "090419.328000",
          "090421.828000",
          "090424.328000",
          "090426.828000",
          "090429.328000",
          "090431.828000",
          "090434.328000",
          "090436.828000",
          "090439.328000",
          "090441.828000",
          "090444.328000",
          "090446.828000",
          "090449.328000",
          "090451.828000",
          "090454.328000",
          "090456.828000",
          "090459.328000",
          "090501.828000",
          "090504.328000",
          "090506.828000",
          "090509.328000",
          "090511.828000",
          "090514.328000",
          "090516.828000",
          "090519.328000",
          "090521.828000",
          "090524.328000",
          "090526.828000",
          "090529.328000",
          "090531.828000",
          "090534.328000",
          "090536.828000",
          "090539.328000",
          "090541.828000",
          "090544.328000",
          "090546.828000",
          "090549.328000",
          "090551.828000",
          "090554.328000",
          "090556.765000"
        ],
        "InstanceCreationTime": [
          "085909.328000",
          "085911.828000",
          "085914.328000",
          "085916.828000",
          "085919.328000",
          "085921.828000",
          "085924.328000",
          "085926.828000",
          "085929.328000",
          "085931.828000",
          "085934.328000",
          "085936.828000",
          "085939.328000",
          "085941.828000",
          "085944.328000",
          "085946.828000",
          "085949.328000",
          "085951.828000",
          "085954.328000",
          "085956.828000",
          "085959.328000",
          "090001.828000",
          "090004.328000",
          "090006.828000",
          "090009.328000",
          "090011.828000",
          "090014.328000",
          "090016.828000",
          "090019.328000",
          "090021.828000",
          "090024.328000",
          "090026.828000",
          "090029.328000",
          "090031.828000",
          "090034.328000",
          "090036.828000",
          "090039.328000",
          "090041.828000",
          "090044.328000",
          "090046.828000",
          "090049.328000",
          "090051.828000",
          "090054.328000",
          "090056.828000",
          "090059.328000",
          "090101.828000",
          "090104.328000",
          "090106.828000",
          "090109.328000",
          "090111.828000",
          "090114.328000",
          "090116.828000",
          "090119.328000",
          "090121.828000",
          "090124.328000",
          "090126.828000",
          "090129.328000",
          "090131.828000",
          "090134.328000",
          "090136.828000",
          "090139.328000",
          "090141.828000",
          "090144.328000",
          "090146.828000",
          "090149.328000",
          "090151.828000",
          "090154.328000",
          "090156.828000",
          "090159.328000",
          "090201.828000",
          "090204.328000",
          "090206.828000",
          "090209.328000",
          "090211.828000",
          "090214.328000",
          "090216.828000",
          "090219.328000",
          "090221.828000",
          "090224.328000",
          "090226.828000",
          "090229.328000",
          "090231.828000",
          "090234.328000",
          "090236.828000",
          "090239.328000",
          "090241.828000",
          "090244.328000",
          "090246.828000",
          "090249.328000",
          "090251.828000",
          "090254.328000",
          "090256.828000",
          "090259.328000",
          "090301.828000",
          "090304.328000",
          "090306.828000",
          "090309.328000",
          "090311.828000",
          "090314.328000",
          "090316.828000",
          "090319.328000",
          "090321.828000",
          "090324.328000",
          "090326.828000",
          "090329.328000",
          "090331.828000",
          "090334.328000",
          "090336.828000",
          "090339.328000",
          "090341.828000",
          "090344.328000",
          "090346.828000",
          "090349.328000",
          "090351.828000",
          "090354.328000",
          "090356.828000",
          "090359.328000",
          "090401.828000",
          "090404.328000",
          "090406.828000",
          "090409.328000",
          "090411.828000",
          "090414.328000",
          "090416.828000",
          "090419.328000",
          "090421.828000",
          "090424.328000",
          "090426.828000",
          "090429.328000",
          "090431.828000",
          "090434.328000",
          "090436.828000",
          "090439.328000",
          "090441.828000",
          "090444.328000",
          "090446.828000",
          "090449.328000",
          "090451.828000",
          "090454.328000",
          "090456.828000",
          "090459.328000",
          "090501.828000",
          "090504.328000",
          "090506.828000",
          "090509.328000",
          "090511.828000",
          "090514.328000",
          "090516.828000",
          "090519.328000",
          "090521.828000",
          "090524.328000",
          "090526.828000",
          "090529.328000",
          "090531.828000",
          "090534.328000",
          "090536.828000",
          "090539.328000",
          "090541.828000",
          "090544.328000",
          "090546.828000",
          "090549.328000",
          "090551.828000",
          "090554.328000",
          "090556.765000"
        ],
        "InstanceNumber": [
          1,
          2,
          3,
          4,
          5,
          6,
          7,
          8,
          9,
          10,
          11,
          12,
          13,
          14,
          15,
          16,
          17,
          18,
          19,
          20,
          21,
          22,
          23,
          24,
          25,
          26,
          27,
          28,
          29,
          30,
          31,
          32,
          33,
          34,
          35,
          36,
          37,
          38,
          39,
          40,
          41,
          42,
          43,
          44,
          45,
          46,
          47,
          48,
          49,
          50,
          51,
          52,
          53,
          54,
          55,
          56,
          57,
          58,
          59,
          60,
          61,
          62,
          63,
          64,
          65,
          66,
          67,
          68,
          69,
          70,
          71,
          72,
          73,
          74,
          75,
          76,
          77,
          78,
          79,
          80,
          81,
          82,
          83,
          84,
          85,
          86,
          87,
          88,
          89,
          90,
          91,
          92,
          93,
          94,
          95,
          96,
          97,
          98,
          99,
          100,
          101,
          102,
          103,
          104,
          105,
          106,
          107,
          108,
          109,
          110,
          111,
          112,
          113,
          114,
          115,
          116,
          117,
          118,
          119,
          120,
          121,
          122,
          123,
          124,
          125,
          126,
          127,
          128,
          129,
          130,
          131,
          132,
          133,
          134,
          135,
          136,
          137,
          138,
          139,
          140,
          141,
          142,
          143,
          144,
          145,
          146,
          147,
          148,
          149,
          150,
          151,
          152,
          153,
          154,
          155,
          156,
          157,
          158,
          159,
          160,
          161,
          162,
          163,
          164
        ],
        "LargestImagePixelValue": [
          1330,
          1240,
          1198,
          1230,
          1339,
          1331,
          1663,
          1186,
          1187,
          1219,
          1379,
          1395,
          1234,
          1278,
          1237,
          1189,
          1194,
          1209,
          1370,
          1183,
          1180,
          1415,
          1179,
          1519,
          1225,
          1158,
          1181,
          1486,
          1199,
          1172,
          1225,
          1173,
          1174,
          1225,
          1329,
          1345,
          1528,
          1166,
          1175,
          1170,
          1250,
          1266,
          1309,
          1218,
          1280,
          1281,
          1213,
          1194,
          1197,
          1262,
          1364,
          1435,
          1238,
          1257,
          1315,
          1263,
          1266,
          1358,
          1293,
          1207,
          1411,
          1410,
          1267,
          1210,
          1205,
          1189,
          1266,
          1262,
          1247,
          1323,
          1232,
          1231,
          1202,
          1278,
          1286,
          1304,
          1319,
          1237,
          1463,
          1305,
          1289,
          1262,
          1239,
          1357,
          1428,
          1443,
          1247,
          1312,
          1384,
          1286,
          1249,
          1226,
          1262,
          1279,
          1448,
          1355,
          1418,
          1245,
          1272,
          1339,
          1348,
          1301,
          1328,
          1336,
          1342,
          1374,
          1300,
          1217,
          1258,
          1256,
          1252,
          1234,
          1280,
          1275,
          1347,
          1518,
          1289,
          1289,
          1424,
          1481,
          1252,
          1354,
          1206,
          1225,
          1398,
          1358,
          1276,
          1339,
          1230,
          1287,
          1315,
          1318,
          1331,
          1199,
          1220,
          1276,
          1261,
          1260,
          1251,
          1248,
          1250,
          1212,
          1191,
          1429,
          1243,
          1211,
          1249,
          1321,
          1314,
          1283,
          1291,
          1310,
          1258,
          1389,
          1464,
          1235,
          1296,
          1617,
          1589,
          1432,
          1269,
          1210,
          1209,
          1231
        ],
        "WindowCenter": [
          595.0,
          598.0,
          599.0,
          599.0,
          601.0,
          599.0,
          601.0,
          597.0,
          600.0,
          589.0,
          598.0,
          599.0,
          597.0,
          597.0,
          587.0,
          598.0,
          600.0,
          600.0,
          600.0,
          599.0,
          599.0,
          599.0,
          598.0,
          599.0,
          589.0,
          598.0,
          588.0,
          600.0,
          597.0,
          598.0,
          588.0,
          598.0,
          599.0,
          600.0,
          597.0,
          599.0,
          589.0,
          597.0,
          598.0,
          600.0,
          600.0,
          594.0,
          599.0,
          600.0,
          599.0,
          600.0,
          599.0,
          599.0,
          600.0,
          600.0,
          590.0,
          600.0,
          600.0,
          588.0,
          599.0,
          594.0,
          599.0,
          593.0,
          596.0,
          593.0,
          592.0,
          591.0,
          594.0,
          588.0,
          599.0,
          598.0,
          589.0,
          589.0,
          599.0,
          590.0,
          593.0,
          603.0,
          594.0,
          601.0,
          600.0,
          589.0,
          599.0,
          593.0,
          588.0,
          593.0,
          593.0,
          589.0,
          592.0,
          589.0,
          600.0,
          594.0,
          591.0,
          594.0,
          591.0,
          586.0,
          591.0,
          593.0,
          594.0,
          595.0,
          595.0,
          592.0,
          590.0,
          594.0,
          595.0,
          589.0,
          594.0,
          599.0,
          594.0,
          590.0,
          598.0,
          593.0,
          592.0,
          588.0,
          599.0,
          589.0,
          590.0,
          599.0,
          594.0,
          600.0,
          594.0,
          592.0,
          594.0,
          589.0,
          586.0,
          590.0,
          589.0,
          592.0,
          588.0,
          593.0,
          594.0,
          593.0,
          592.0,
          587.0,
          594.0,
          591.0,
          594.0,
          594.0,
          599.0,
          591.0,
          599.0,
          600.0,
          599.0,
          599.0,
          594.0,
          593.0,
          599.0,
          593.0,
          598.0,
          600.0,
          591.0,
          598.0,
