{
  "aor": 0.027128719512195122,
  "aqi": 0.038419166036585364,
  "bids_meta": {
    "AcquisitionMatrixPE": 64,
    "AcquisitionNumber": 1,
    "AcquisitionTime": "08:25:42.210000",
    "BandwidthPerPixelPhaseEncode": 26.483,
    "BaseResolution": 64,
    "BodyPartExamined": "HEAD",
    "CogAtlasID": "TODO",
    "ConversionSoftware": "dcm2niix",
    "ConversionSoftwareVersion": "v1.0.20171017 GCC6.3.0",
    "DerivedVendorReportedEchoSpacing": 0.000590001,
    "DeviceSerialNumber": "35177",
    "DwellTime": 4.1e-06,
    "EchoTime": 0.027,
    "EffectiveEchoSpacing": 0.000590001,
    "FlipAngle": 90,
    "ImageOrientationPatientDICOM": [
      0.998615,
      0.00901956,
      -0.0518278,
      0.00462592,
      0.96632,
      0.2573
    ],
    "ImageType": [
      "ORIGINAL",
      "PRIMARY",
      "M",
      "ND",
      "NORM",
      "MOSAIC"
    ],
    "InPlanePhaseEncodingDirectionDICOM": "COL",
    "InstitutionAddress": "Scott_Ave._4525_St._Louis_MO_US_63110",
    "InstitutionName": "Washington_University",
    "InstitutionalDepartmentName": "Department",
    "MRAcquisitionType": "2D",
    "MagneticFieldStrength": 3,
    "Manufacturer": "Siemens",
    "ManufacturersModelName": "TrioTim",
    "Modality": "MR",
    "PartialFourier": 1,
    "PatientPosition": "HFS",
    "PercentPhaseFOV": 100,
    "PhaseEncodingDirection": "j-",
    "PhaseEncodingSteps": 64,
    "PhaseResolution": 1,
    "PixelBandwidth": 1905,
    "ProcedureStepDescription": "head_GREENE",
    "ProtocolName": "ep2d_bold_feedback_rest",
    "PulseSequenceDetails": "%SiemensSeq%_ep2d_bold",
    "ReceiveCoilName": "HeadMatrix",
    "ReconMatrixPE": 64,
    "RepetitionTime": 2.5,
    "SAR": 0.136964,
    "ScanOptions": "FS",
    "ScanningSequence": "EP",
    "SequenceName": "_epfid2d1_64",
    "SequenceVariant": "SK",
    "SeriesDescription": "ep2d_bold_feedback_rest",
    "SeriesNumber": 9,
    "ShimSetting": [
      -285,
      -19617,
      7988,
      246,
      -63,
      -445,
      266,
      128
    ],
    "SliceThickness": 4,
    "SliceTiming": [
      1.255,
      0,
      1.3325,
      0.0775,
      1.41,
      0.155,
      1.49,
      0.235,
      1.5675,
      0.3125,
      1.645,
      0.3925,
      1.725,
      0.47,
      1.8025,
      0.5475,
      1.8825,
      0.6275,
      1.96,
      0.705,
      2.0375,
      0.7825,
      2.1175,
      0.8625,
      2.195,
      0.94,
      2.2725,
      1.0175,
      2.3525,
      1.0975,
      2.43,
      1.175
    ],
    "SoftwareVersions": "syngo_MR_B17",
    "SpacingBetweenSlices": 4,
    "StationName": "MRC35177",
    "TaskName": "restfixationfixed",
    "TotalReadoutTime": 0.0371701,
    "TxRefAmp": 341.427,
    "dataset": "ds000256",
    "dcmmeta_affine": [
      [
        -3.9944612979888916,
        0.018503684550523758,
        -0.2096118927001953,
        137.54656982421875
      ],
      [
        -0.036078255623579025,
        3.865281820297241,
        1.028734564781189,
        -143.70362854003906
      ],
      [
        -0.20731116831302643,
        -1.0292010307312012,
        3.8597612380981445,
        11.478185653686523
      ],
      [
        0.0,
        0.0,
        0.0,
        1.0
      ]
    ],
    "dcmmeta_reorient_transform": [
      [
        0.0,
        -1.0,
        0.0,
        63.0
      ],
      [
        1.0,
        0.0,
        0.0,
        0.0
      ],
      [
        0.0,
        0.0,
        1.0,
        0.0
      ],
      [
        0.0,
        0.0,
        0.0,
        1.0
      ]
    ],
    "dcmmeta_shape": [
      64,
      64,
      32,
      164
    ],
    "dcmmeta_slice_dim": 2,
    "dcmmeta_version": 0.6,
    "global": {
      "const": {
        "AccessionNumber": ".",
        "AcquisitionMatrix": [
          64,
          0,
          0,
          64
        ],
        "AngioFlag": "N",
        "BitsAllocated": 16,
        "BitsStored": 12,
        "BodyPartExamined": "HEAD",
        "Columns": 384,
        "DeidentificationMethodCodeSequence": [
          {
            "CodeMeaning": "XNAT Edit Script",
            "CodeValue": "625500",
            "CodingSchemeDesignator": "XNAT",
            "CodingSchemeVersion": "0.1"
          }
        ],
        "EchoNumbers": 1,
        "EchoTime": 27.0,
        "EchoTrainLength": 1,
        "FlipAngle": 90.0,
        "HighBit": 11,
        "ImageOrientationPatient": [
          0.99861530496478,
          0.0090195635161,
          -0.0518277933553,
          0.00462592096546,
          0.96632043539885,
          0.2573002467659
        ],
        "ImagePositionPatient": [
          -780.78668392348,
          -724.02671631939,
          -184.86384695068
        ],
        "ImageType": [
          "ORIGINAL",
          "PRIMARY",
          "M",
          "ND",
          "NORM",
          "MOSAIC"
        ],
        "ImagedNucleus": "1H",
        "ImagingFrequency": 123.255911,
        "InPlanePhaseEncodingDirection": "COL",
        "MRAcquisitionType": "2D",
        "MagneticFieldStrength": 3.0,
        "Manufacturer": "SIEMENS",
        "ManufacturerModelName": "TrioTim",
        "Modality": "MR",
        "NumberOfAverages": 1.0,
        "NumberOfPhaseEncodingSteps": 64,
        "PercentPhaseFieldOfView": 100.0,
        "PercentSampling": 100.0,
        "PerformedProcedureStepStartTime": "080144.500000",
        "PhotometricInterpretation": "MONOCHROME2",
        "PixelBandwidth": 1905.0,
        "PixelRepresentation": 0,
        "PixelSpacing": [
          4.0,
          4.0
        ],
        "PositionReferenceIndicator": "",
        "ProtocolName": "ep2d_bold_feedback_rest",
        "RepetitionTime": 2500.0,
        "Rows": 384,
        "SAR": 0.13696425289365,
        "SamplesPerPixel": 1,
        "ScanOptions": "FS",
        "ScanningSequence": "EP",
        "SequenceName": "*epfid2d1_64",
        "SequenceVariant": "SK",
        "SeriesDescription": "ep2d_bold_feedback_rest",
        "SeriesNumber": 9,
        "SeriesTime": "082544.328000",
        "SliceLocation": -33.090318118336,
        "SliceThickness": 4.0,
        "SmallestImagePixelValue": 0,
        "SoftwareVersions": "syngo MR B17",
        "SpacingBetweenSlices": 3.9999986890626,
        "SpecificCharacterSet": "ISO_IR 100",
        "StudyID": "1",
        "StudyTime": "080144.453000",
        "TransmitCoilName": "Body",
        "VariableFlipAngleFlag": "N",
        "WindowCenterWidthExplanation": "Algo1",
        "dBdt": 0.0
      },
      "slices": {}
    },
    "modality": "bold",
    "subject_id": "CTS210",
    "task_id": "restfixationfixed",
    "time": {
      "samples": {
        "AcquisitionNumber": [
          1,
          2,
          3,
          4,
          5,
          6,
          7,
          8,
          9,
          10,
          11,
          12,
          13,
          14,
          15,
          16,
          17,
          18,
          19,
          20,
          21,
          22,
          23,
          24,
          25,
          26,
          27,
          28,
          29,
          30,
          31,
          32,
          33,
          34,
          35,
          36,
          37,
          38,
          39,
          40,
          41,
          42,
          43,
          44,
          45,
          46,
          47,
          48,
          49,
          50,
          51,
          52,
          53,
          54,
          55,
          56,
          57,
          58,
          59,
          60,
          61,
          62,
          63,
          64,
          65,
          66,
          67,
          68,
          69,
          70,
          71,
          72,
          73,
          74,
          75,
          76,
          77,
          78,
          79,
          80,
          81,
          82,
          83,
          84,
          85,
          86,
          87,
          88,
          89,
          90,
          91,
          92,
          93,
          94,
          95,
          96,
          97,
          98,
          99,
          100,
          101,
          102,
          103,
          104,
          105,
          106,
          107,
          108,
          109,
          110,
          111,
          112,
          113,
          114,
          115,
          116,
          117,
          118,
          119,
          120,
          121,
          122,
          123,
          124,
          125,
          126,
          127,
          128,
          129,
          130,
          131,
          132,
          133,
          134,
          135,
          136,
          137,
          138,
          139,
          140,
          141,
          142,
          143,
          144,
          145,
          146,
          147,
          148,
          149,
          150,
          151,
          152,
          153,
          154,
          155,
          156,
          157,
          158,
          159,
          160,
          161,
          162,
          163,
          164
        ],
        "AcquisitionTime": [
          "082542.210000",
          "082544.720000",
          "082547.230000",
          "082549.740000",
          "082552.250000",
          "082554.760000",
          "082557.270000",
          "082559.780000",
          "082602.290000",
          "082604.800000",
          "082607.310000",
          "082609.820000",
          "082612.330000",
          "082614.840000",
          "082617.350000",
          "082619.860000",
          "082622.370000",
          "082624.880000",
          "082627.390000",
          "082629.900000",
          "082632.410000",
          "082634.920000",
          "082637.430000",
          "082639.940000",
          "082642.450000",
          "082644.960000",
          "082647.470000",
          "082649.980000",
          "082652.490000",
          "082655.000000",
          "082657.510000",
          "082700.020000",
          "082702.530000",
          "082705.040000",
          "082707.550000",
          "082710.060000",
          "082712.570000",
          "082715.080000",
          "082717.590000",
          "082720.100000",
          "082722.610000",
          "082725.120000",
          "082727.630000",
          "082730.140000",
          "082732.650000",
          "082735.160000",
          "082737.670000",
          "082740.180000",
          "082742.690000",
          "082745.200000",
          "082747.710000",
          "082750.220000",
          "082752.730000",
          "082755.240000",
          "082757.750000",
          "082800.260000",
          "082802.772500",
          "082805.282500",
          "082807.792500",
          "082810.302500",
          "082812.812500",
          "082815.322500",
          "082817.832500",
          "082820.342500",
          "082822.852500",
          "082825.362500",
          "082827.872500",
          "082830.382500",
          "082832.892500",
          "082835.402500",
          "082837.912500",
          "082840.422500",
          "082842.932500",
          "082845.442500",
          "082847.952500",
          "082850.462500",
          "082852.972500",
          "082855.482500",
          "082857.992500",
          "082900.502500",
          "082903.012500",
          "082905.522500",
          "082908.032500",
          "082910.542500",
          "082913.052500",
          "082915.562500",
          "082918.072500",
          "082920.582500",
          "082923.092500",
          "082925.602500",
          "082928.112500",
          "082930.622500",
          "082933.132500",
          "082935.642500",
          "082938.152500",
          "082940.662500",
          "082943.172500",
          "082945.682500",
          "082948.192500",
          "082950.702500",
          "082953.212500",
          "082955.722500",
          "082958.232500",
          "083000.742500",
          "083003.252500",
          "083005.762500",
          "083008.272500",
          "083010.782500",
          "083013.292500",
          "083015.802500",
          "083018.312500",
          "083020.822500",
          "083023.332500",
          "083025.842500",
          "083028.352500",
          "083030.862500",
          "083033.372500",
          "083035.882500",
          "083038.395000",
          "083040.905000",
          "083043.415000",
          "083045.925000",
          "083048.435000",
          "083050.945000",
          "083053.455000",
          "083055.965000",
          "083058.475000",
          "083100.985000",
          "083103.495000",
          "083106.005000",
          "083108.515000",
          "083111.025000",
          "083113.535000",
          "083116.045000",
          "083118.555000",
          "083121.065000",
          "083123.575000",
          "083126.085000",
          "083128.595000",
          "083131.105000",
          "083133.615000",
          "083136.125000",
          "083138.635000",
          "083141.145000",
          "083143.655000",
          "083146.165000",
          "083148.675000",
          "083151.185000",
          "083153.695000",
          "083156.205000",
          "083158.715000",
          "083201.225000",
          "083203.735000",
          "083206.245000",
          "083208.755000",
          "083211.265000",
          "083213.775000",
          "083216.285000",
          "083218.795000",
          "083221.305000",
          "083223.815000",
          "083226.325000",
          "083228.835000",
          "083231.345000"
        ],
        "ContentTime": [
          "082544.328000",
          "082546.812000",
          "082549.312000",
          "082551.812000",
          "082554.312000",
          "082556.812000",
          "082559.312000",
          "082601.812000",
          "082604.312000",
          "082606.812000",
          "082609.312000",
          "082611.812000",
          "082614.312000",
          "082616.812000",
          "082619.312000",
          "082621.812000",
          "082624.312000",
          "082626.812000",
          "082629.312000",
          "082631.812000",
          "082634.312000",
          "082636.812000",
          "082639.312000",
          "082641.812000",
          "082644.312000",
          "082646.812000",
          "082649.312000",
          "082651.812000",
          "082654.312000",
          "082656.812000",
          "082659.312000",
          "082701.812000",
          "082704.312000",
          "082706.812000",
          "082709.312000",
          "082711.812000",
          "082714.312000",
          "082716.812000",
          "082719.312000",
          "082721.812000",
          "082724.312000",
          "082726.812000",
          "082729.312000",
          "082731.812000",
          "082734.312000",
          "082736.812000",
          "082739.312000",
          "082741.812000",
          "082744.312000",
          "082746.812000",
          "082749.312000",
          "082751.812000",
          "082754.312000",
          "082756.812000",
          "082759.312000",
          "082801.812000",
          "082804.312000",
          "082806.812000",
          "082809.312000",
          "082811.812000",
          "082814.312000",
          "082816.812000",
          "082819.312000",
          "082821.812000",
          "082824.312000",
          "082826.812000",
          "082829.312000",
          "082831.812000",
          "082834.312000",
          "082836.812000",
          "082839.312000",
          "082841.812000",
          "082844.312000",
          "082846.812000",
          "082849.312000",
          "082851.812000",
          "082854.312000",
          "082856.812000",
          "082859.312000",
          "082901.812000",
          "082904.312000",
          "082906.812000",
          "082909.312000",
          "082911.812000",
          "082914.312000",
          "082916.812000",
          "082919.312000",
          "082921.812000",
          "082924.312000",
          "082926.812000",
          "082929.312000",
          "082931.812000",
          "082934.312000",
          "082936.812000",
          "082939.312000",
          "082941.812000",
          "082944.312000",
          "082946.812000",
          "082949.312000",
          "082951.812000",
          "082954.312000",
          "082956.812000",
          "082959.312000",
          "083001.812000",
          "083004.812000",
          "083006.812000",
          "083009.312000",
          "083011.812000",
          "083014.312000",
          "083016.812000",
          "083019.312000",
          "083021.812000",
          "083024.312000",
          "083026.812000",
          "083029.312000",
          "083031.812000",
          "083034.312000",
          "083036.812000",
          "083039.312000",
          "083041.812000",
          "083044.312000",
          "083046.812000",
          "083049.312000",
          "083051.812000",
          "083054.312000",
          "083056.812000",
          "083059.312000",
          "083101.812000",
          "083104.312000",
          "083106.812000",
          "083109.312000",
          "083111.812000",
          "083114.312000",
          "083116.812000",
          "083119.312000",
          "083121.812000",
          "083124.312000",
          "083126.812000",
          "083129.312000",
          "083131.812000",
          "083134.312000",
          "083136.812000",
          "083139.312000",
          "083141.812000",
          "083144.312000",
          "083146.812000",
          "083149.312000",
          "083151.812000",
          "083154.312000",
          "083156.812000",
          "083159.312000",
          "083201.812000",
          "083204.312000",
          "083206.812000",
          "083209.312000",
          "083211.812000",
          "083214.312000",
          "083216.812000",
          "083219.312000",
          "083221.812000",
          "083224.312000",
          "083226.812000",
          "083229.312000",
          "083231.796000"
        ],
        "InstanceCreationTime": [
          "082544.328000",
          "082546.812000",
          "082549.312000",
          "082551.812000",
          "082554.312000",
          "082556.812000",
          "082559.312000",
          "082601.812000",
          "082604.312000",
          "082606.812000",
          "082609.312000",
          "082611.812000",
          "082614.312000",
          "082616.812000",
          "082619.312000",
          "082621.812000",
          "082624.312000",
          "082626.812000",
          "082629.312000",
          "082631.812000",
          "082634.312000",
          "082636.812000",
          "082639.312000",
          "082641.812000",
          "082644.312000",
          "082646.812000",
          "082649.312000",
          "082651.812000",
          "082654.312000",
          "082656.812000",
          "082659.312000",
          "082701.812000",
          "082704.312000",
          "082706.812000",
          "082709.312000",
          "082711.812000",
          "082714.312000",
          "082716.812000",
          "082719.312000",
          "082721.812000",
          "082724.312000",
          "082726.812000",
          "082729.312000",
          "082731.812000",
          "082734.312000",
          "082736.812000",
          "082739.312000",
          "082741.812000",
          "082744.312000",
          "082746.812000",
          "082749.312000",
          "082751.812000",
          "082754.312000",
          "082756.812000",
          "082759.312000",
          "082801.812000",
          "082804.312000",
          "082806.812000",
          "082809.312000",
          "082811.812000",
          "082814.312000",
          "082816.812000",
          "082819.312000",
          "082821.812000",
          "082824.312000",
          "082826.812000",
          "082829.312000",
          "082831.812000",
          "082834.312000",
          "082836.812000",
          "082839.312000",
          "082841.812000",
          "082844.312000",
          "082846.812000",
          "082849.312000",
          "082851.812000",
          "082854.312000",
          "082856.812000",
          "082859.312000",
          "082901.812000",
          "082904.312000",
          "082906.812000",
          "082909.312000",
          "082911.812000",
          "082914.312000",
          "082916.812000",
          "082919.312000",
          "082921.812000",
          "082924.312000",
          "082926.812000",
          "082929.312000",
          "082931.812000",
          "082934.312000",
          "082936.812000",
          "082939.312000",
          "082941.812000",
          "082944.312000",
          "082946.812000",
          "082949.312000",
          "082951.812000",
          "082954.312000",
          "082956.812000",
          "082959.312000",
          "083001.812000",
          "083004.812000",
          "083006.812000",
          "083009.312000",
          "083011.812000",
          "083014.312000",
          "083016.812000",
          "083019.312000",
          "083021.812000",
          "083024.312000",
          "083026.812000",
          "083029.312000",
          "083031.812000",
          "083034.312000",
          "083036.812000",
          "083039.312000",
          "083041.812000",
          "083044.312000",
          "083046.812000",
          "083049.312000",
          "083051.812000",
          "083054.312000",
          "083056.812000",
          "083059.312000",
          "083101.812000",
          "083104.312000",
          "083106.812000",
          "083109.312000",
          "083111.812000",
          "083114.312000",
          "083116.812000",
          "083119.312000",
          "083121.812000",
          "083124.312000",
          "083126.812000",
          "083129.312000",
          "083131.812000",
          "083134.312000",
          "083136.812000",
          "083139.312000",
          "083141.812000",
          "083144.312000",
          "083146.812000",
          "083149.312000",
          "083151.812000",
          "083154.312000",
          "083156.812000",
          "083159.312000",
          "083201.812000",
          "083204.312000",
          "083206.812000",
          "083209.312000",
          "083211.812000",
          "083214.312000",
          "083216.812000",
          "083219.312000",
          "083221.812000",
          "083224.312000",
          "083226.812000",
          "083229.312000",
          "083231.796000"
        ],
        "InstanceNumber": [
          1,
          2,
          3,
          4,
          5,
          6,
          7,
          8,
          9,
          10,
          11,
          12,
          13,
          14,
          15,
          16,
          17,
          18,
          19,
          20,
          21,
          22,
          23,
          24,
          25,
          26,
          27,
          28,
          29,
          30,
          31,
          32,
          33,
          34,
          35,
          36,
          37,
          38,
          39,
          40,
          41,
          42,
          43,
          44,
          45,
          46,
          47,
          48,
          49,
          50,
          51,
          52,
          53,
          54,
          55,
          56,
          57,
          58,
          59,
          60,
          61,
          62,
          63,
          64,
          65,
          66,
          67,
          68,
          69,
          70,
          71,
          72,
          73,
          74,
          75,
          76,
          77,
          78,
          79,
          80,
          81,
          82,
          83,
          84,
          85,
          86,
          87,
          88,
          89,
          90,
          91,
          92,
          93,
          94,
          95,
          96,
          97,
          98,
          99,
          100,
          101,
          102,
          103,
          104,
          105,
          106,
          107,
          108,
          109,
          110,
          111,
          112,
          113,
          114,
          115,
          116,
          117,
          118,
          119,
          120,
          121,
          122,
          123,
          124,
          125,
          126,
          127,
          128,
          129,
          130,
          131,
          132,
          133,
          134,
          135,
          136,
          137,
          138,
          139,
          140,
          141,
          142,
          143,
          144,
          145,
          146,
          147,
          148,
          149,
          150,
          151,
          152,
          153,
          154,
          155,
          156,
          157,
          158,
          159,
          160,
          161,
          162,
          163,
          164
        ],
        "LargestImagePixelValue": [
          1134,
          1122,
          1137,
          1161,
          1137,
          1123,
          1121,
          1155,
          1122,
          1120,
          1107,
          1117,
          1140,
          1130,
          1133,
          1158,
          1119,
          1146,
          1099,
          1141,
          1107,
          1154,
          1127,
          1129,
          1130,
          1107,
          1134,
          1122,
          1116,
          1126,
          1136,
          1117,
          1121,
          1120,
          1125,
          1146,
          1120,
          1134,
          1115,
          1148,
          1114,
          1130,
          1130,
          1133,
          1407,
          1120,
          1201,
          1154,
          1245,
          1103,
          1163,
          1163,
          1144,
          1218,
          1146,
          1182,
          1171,
          1109,
          1117,
          1135,
          1099,
          1099,
          1113,
          1107,
          1119,
          1128,
          1121,
          1104,
          1119,
          1095,
          1116,
          1150,
          1101,
          1101,
          1195,
          1111,
          1100,
          1141,
          1212,
          1177,
          1115,
          1167,
          1106,
          1163,
          1135,
          1107,
          1152,
          1129,
          1129,
          1138,
          1139,
          1119,
          1119,
          1128,
          1124,
          1116,
          1121,
          1116,
          1128,
          1123,
          1124,
          1138,
          1113,
          1131,
          1117,
          1116,
          1128,
          1110,
          1105,
          1109,
          1125,
          1128,
          1125,
          1123,
          1125,
          1128,
          1155,
          1130,
          1115,
          1148,
          1156,
          1169,
          1499,
          1191,
          1176,
          1111,
          1129,
          1131,
          1122,
          1144,
          1149,
          1139,
          1137,
          1150,
          1127,
          1125,
          1142,
          1113,
          1100,
          1076,
          1313,
          1114,
          1127,
          1065,
          1146,
          1316,
          1242,
          1142,
          1187,
          1136,
          1137,
          1135,
          1133,
          1145,
          1133,
          1136,
          1152,
          1131,
          1131,
          1144,
          1147,
          1148,
          1123,
          1132
        ],
        "WindowCenter": [
          571.0,
          573.0,
          571.0,
          573.0,
          572.0,
          571.0,
          572.0,
          572.0,
          572.0,
          570.0,
          573.0,
          571.0,
          570.0,
          572.0,
          575.0,
          575.0,
          574.0,
          571.0,
          571.0,
          571.0,
          573.0,
          573.0,
          565.0,
          569.0,
          565.0,
          566.0,
          565.0,
          569.0,
          570.0,
          570.0,
          569.0,
          569.0,
          570.0,
          570.0,
          570.0,
          571.0,
          571.0,
          570.0,
          570.0,
          571.0,
          571.0,
          571.0,
          571.0,
          564.0,
          563.0,
          571.0,
          568.0,
          569.0,
          568.0,
          570.0,
          569.0,
          572.0,
          571.0,
          571.0,
          570.0,
          568.0,
          569.0,
          570.0,
          570.0,
          569.0,
          569.0,
          570.0,
          570.0,
          570.0,
          569.0,
          569.0,
          570.0,
          570.0,
          571.0,
          570.0,
          569.0,
          571.0,
          570.0,
          569.0,
          570.0,
          570.0,
          571.0,
          569.0,
          563.0,
          568.0,
          568.0,
          566.0,
          567.0,
          571.0,
          572.0,
          571.0,
          566.0,
          572.0,
          571.0,
          572.0,
          574.0,
          568.0,
          570.0,
          574.0,
          573.0,
          573.0,
          569.0,
          571.0,
          571.0,
          571.0,
          570.0,
          571.0,
          573.0,
          572.0,
          575.0,
          571.0,
          571.0,
          570.0,
          568.0,
          569.0,
          569.0,
          572.0,
          572.0,
          570.0,
          572.0,
          572.0,
          571.0,
          573.0,
          571.0,
          563.0,
          571.0,
          578.0,
          551.0,
          579.0,
          571.0,
          569.0,
          569.0,
          572.0,
          572.0,
          574.0,
          574.0,
          573.0,
          572.0,
          571.0,
          571.0,
          572.0,
          573.0,
          572.0,
          565.0,
          549.0,
          577.0,
          568.0,
          570.0,
          555.0,
          579.0,
          579.0,
          576.0,
          575.0,
