{
  "aor": 0.026042926829268294,
  "aqi": 0.15152961463414633,
  "bids_meta": {
    "AcquisitionMatrixPE": 64,
    "AcquisitionNumber": 1,
    "AcquisitionTime": "08:33:32.630000",
    "BandwidthPerPixelPhaseEncode": 26.483,
    "BaseResolution": 64,
    "BodyPartExamined": "HEAD",
    "CogAtlasID": "TODO",
    "ConversionSoftware": "dcm2niix",
    "ConversionSoftwareVersion": "v1.0.20171017 GCC6.3.0",
    "DerivedVendorReportedEchoSpacing": 0.000590001,
    "DeviceSerialNumber": "35177",
    "DwellTime": 4.1e-06,
    "EchoTime": 0.027,
    "EffectiveEchoSpacing": 0.000590001,
    "FlipAngle": 90,
    "ImageOrientationPatientDICOM": [
      0.998615,
      0.00901956,
      -0.0518278,
      0.00462592,
      0.96632,
      0.2573
    ],
    "ImageType": [
      "ORIGINAL",
      "PRIMARY",
      "M",
      "ND",
      "NORM",
      "MOSAIC"
    ],
    "InPlanePhaseEncodingDirectionDICOM": "COL",
    "InstitutionAddress": "Scott_Ave._4525_St._Louis_MO_US_63110",
    "InstitutionName": "Washington_University",
    "InstitutionalDepartmentName": "Department",
    "MRAcquisitionType": "2D",
    "MagneticFieldStrength": 3,
    "Manufacturer": "Siemens",
    "ManufacturersModelName": "TrioTim",
    "Modality": "MR",
    "PartialFourier": 1,
    "PatientPosition": "HFS",
    "PercentPhaseFOV": 100,
    "PhaseEncodingDirection": "j-",
    "PhaseEncodingSteps": 64,
    "PhaseResolution": 1,
    "PixelBandwidth": 1905,
    "ProcedureStepDescription": "head_GREENE",
    "ProtocolName": "ep2d_bold_rest2",
    "PulseSequenceDetails": "%SiemensSeq%_ep2d_bold",
    "ReceiveCoilName": "HeadMatrix",
    "ReconMatrixPE": 64,
    "RepetitionTime": 2.5,
    "SAR": 0.136964,
    "ScanOptions": "FS",
    "ScanningSequence": "EP",
    "SequenceName": "_epfid2d1_64",
    "SequenceVariant": "SK",
    "SeriesDescription": "ep2d_bold_rest2",
    "SeriesNumber": 10,
    "ShimSetting": [
      -285,
      -19617,
      7988,
      246,
      -63,
      -445,
      266,
      128
    ],
    "SliceThickness": 4,
    "SliceTiming": [
      1.255,
      0,
      1.335,
      0.08,
      1.4125,
      0.1575,
      1.49,
      0.235,
      1.57,
      0.315,
      1.6475,
      0.3925,
      1.725,
      0.4725,
      1.805,
      0.55,
      1.8825,
      0.6275,
      1.9625,
      0.7075,
      2.04,
      0.785,
      2.1175,
      0.8625,
      2.1975,
      0.9425,
      2.275,
      1.02,
      2.3525,
      1.0975,
      2.4325,
      1.1775
    ],
    "SoftwareVersions": "syngo_MR_B17",
    "SpacingBetweenSlices": 4,
    "StationName": "MRC35177",
    "TaskName": "restfixationnofeedback",
    "TotalReadoutTime": 0.0371701,
    "TxRefAmp": 341.427,
    "dataset": "ds000256",
    "dcmmeta_affine": [
      [
        -3.9944612979888916,
        0.018503684550523758,
        -0.2096118927001953,
        137.54656982421875
      ],
      [
        -0.036078255623579025,
        3.865281820297241,
        1.028734564781189,
        -143.70362854003906
      ],
      [
        -0.20731116831302643,
        -1.0292010307312012,
        3.8597612380981445,
        11.478185653686523
      ],
      [
        0.0,
        0.0,
        0.0,
        1.0
      ]
    ],
    "dcmmeta_reorient_transform": [
      [
        0.0,
        -1.0,
        0.0,
        63.0
      ],
      [
        1.0,
        0.0,
        0.0,
        0.0
      ],
      [
        0.0,
        0.0,
        1.0,
        0.0
      ],
      [
        0.0,
        0.0,
        0.0,
        1.0
      ]
    ],
    "dcmmeta_shape": [
      64,
      64,
      32,
      164
    ],
    "dcmmeta_slice_dim": 2,
    "dcmmeta_version": 0.6,
    "global": {
      "const": {
        "AccessionNumber": ".",
        "AcquisitionMatrix": [
          64,
          0,
          0,
          64
        ],
        "AngioFlag": "N",
        "BitsAllocated": 16,
        "BitsStored": 12,
        "BodyPartExamined": "HEAD",
        "Columns": 384,
        "DeidentificationMethodCodeSequence": [
          {
            "CodeMeaning": "XNAT Edit Script",
            "CodeValue": "625500",
            "CodingSchemeDesignator": "XNAT",
            "CodingSchemeVersion": "0.1"
          }
        ],
        "EchoNumbers": 1,
        "EchoTime": 27.0,
        "EchoTrainLength": 1,
        "FlipAngle": 90.0,
        "HighBit": 11,
        "ImageOrientationPatient": [
          0.99861530496478,
          0.0090195635161,
          -0.0518277933553,
          0.00462592096546,
          0.96632043539885,
          0.2573002467659
        ],
        "ImagePositionPatient": [
          -780.78668392348,
          -724.02671631939,
          -184.86384695068
        ],
        "ImageType": [
          "ORIGINAL",
          "PRIMARY",
          "M",
          "ND",
          "NORM",
          "MOSAIC"
        ],
        "ImagedNucleus": "1H",
        "ImagingFrequency": 123.255914,
        "InPlanePhaseEncodingDirection": "COL",
        "MRAcquisitionType": "2D",
        "MagneticFieldStrength": 3.0,
        "Manufacturer": "SIEMENS",
        "ManufacturerModelName": "TrioTim",
        "Modality": "MR",
        "NumberOfAverages": 1.0,
        "NumberOfPhaseEncodingSteps": 64,
        "PercentPhaseFieldOfView": 100.0,
        "PercentSampling": 100.0,
        "PerformedProcedureStepStartTime": "080144.500000",
        "PhotometricInterpretation": "MONOCHROME2",
        "PixelBandwidth": 1905.0,
        "PixelRepresentation": 0,
        "PixelSpacing": [
          4.0,
          4.0
        ],
        "PositionReferenceIndicator": "",
        "ProtocolName": "ep2d_bold_rest2",
        "RepetitionTime": 2500.0,
        "Rows": 384,
        "SAR": 0.13696425289365,
        "SamplesPerPixel": 1,
        "ScanOptions": "FS",
        "ScanningSequence": "EP",
        "SequenceName": "*epfid2d1_64",
        "SequenceVariant": "SK",
        "SeriesDescription": "ep2d_bold_rest2",
        "SeriesNumber": 10,
        "SeriesTime": "083334.984000",
        "SliceLocation": -33.090318118336,
        "SliceThickness": 4.0,
        "SmallestImagePixelValue": 0,
        "SoftwareVersions": "syngo MR B17",
        "SpacingBetweenSlices": 3.9999986890626,
        "SpecificCharacterSet": "ISO_IR 100",
        "StudyID": "1",
        "StudyTime": "080144.453000",
        "TransmitCoilName": "Body",
        "VariableFlipAngleFlag": "N",
        "WindowCenterWidthExplanation": "Algo1",
        "dBdt": 0.0
      },
      "slices": {}
    },
    "modality": "bold",
    "subject_id": "CTS210",
    "task_id": "restfixationnofeedback",
    "time": {
      "samples": {
        "AcquisitionNumber": [
          1,
          2,
          3,
          4,
          5,
          6,
          7,
          8,
          9,
          10,
          11,
          12,
          13,
          14,
          15,
          16,
          17,
          18,
          19,
          20,
          21,
          22,
          23,
          24,
          25,
          26,
          27,
          28,
          29,
          30,
          31,
          32,
          33,
          34,
          35,
          36,
          37,
          38,
          39,
          40,
          41,
          42,
          43,
          44,
          45,
          46,
          47,
          48,
          49,
          50,
          51,
          52,
          53,
          54,
          55,
          56,
          57,
          58,
          59,
          60,
          61,
          62,
          63,
          64,
          65,
          66,
          67,
          68,
          69,
          70,
          71,
          72,
          73,
          74,
          75,
          76,
          77,
          78,
          79,
          80,
          81,
          82,
          83,
          84,
          85,
          86,
          87,
          88,
          89,
          90,
          91,
          92,
          93,
          94,
          95,
          96,
          97,
          98,
          99,
          100,
          101,
          102,
          103,
          104,
          105,
          106,
          107,
          108,
          109,
          110,
          111,
          112,
          113,
          114,
          115,
          116,
          117,
          118,
          119,
          120,
          121,
          122,
          123,
          124,
          125,
          126,
          127,
          128,
          129,
          130,
          131,
          132,
          133,
          134,
          135,
          136,
          137,
          138,
          139,
          140,
          141,
          142,
          143,
          144,
          145,
          146,
          147,
          148,
          149,
          150,
          151,
          152,
          153,
          154,
          155,
          156,
          157,
          158,
          159,
          160,
          161,
          162,
          163,
          164
        ],
        "AcquisitionTime": [
          "083332.630000",
          "083335.140000",
          "083337.650000",
          "083340.160000",
          "083342.670000",
          "083345.180000",
          "083347.690000",
          "083350.200000",
          "083352.710000",
          "083355.220000",
          "083357.730000",
          "083400.240000",
          "083402.750000",
          "083405.260000",
          "083407.770000",
          "083410.280000",
          "083412.790000",
          "083415.302500",
          "083417.812500",
          "083420.322500",
          "083422.832500",
          "083425.342500",
          "083427.852500",
          "083430.362500",
          "083432.872500",
          "083435.382500",
          "083437.892500",
          "083440.402500",
          "083442.912500",
          "083445.422500",
          "083447.932500",
          "083450.442500",
          "083452.952500",
          "083455.462500",
          "083457.972500",
          "083500.482500",
          "083502.992500",
          "083505.502500",
          "083508.012500",
          "083510.522500",
          "083513.032500",
          "083515.542500",
          "083518.052500",
          "083520.562500",
          "083523.072500",
          "083525.582500",
          "083528.092500",
          "083530.602500",
          "083533.112500",
          "083535.622500",
          "083538.132500",
          "083540.642500",
          "083543.152500",
          "083545.662500",
          "083548.172500",
          "083550.682500",
          "083553.192500",
          "083555.702500",
          "083558.212500",
          "083600.722500",
          "083603.232500",
          "083605.742500",
          "083608.252500",
          "083610.762500",
          "083613.272500",
          "083615.782500",
          "083618.292500",
          "083620.802500",
          "083623.312500",
          "083625.822500",
          "083628.332500",
          "083630.842500",
          "083633.352500",
          "083635.862500",
          "083638.372500",
          "083640.882500",
          "083643.392500",
          "083645.902500",
          "083648.412500",
          "083650.925000",
          "083653.435000",
          "083655.945000",
          "083658.455000",
          "083700.965000",
          "083703.475000",
          "083705.985000",
          "083708.495000",
          "083711.005000",
          "083713.515000",
          "083716.025000",
          "083718.535000",
          "083721.045000",
          "083723.555000",
          "083726.065000",
          "083728.575000",
          "083731.085000",
          "083733.595000",
          "083736.105000",
          "083738.615000",
          "083741.125000",
          "083743.635000",
          "083746.145000",
          "083748.655000",
          "083751.165000",
          "083753.675000",
          "083756.185000",
          "083758.695000",
          "083801.205000",
          "083803.715000",
          "083806.225000",
          "083808.735000",
          "083811.245000",
          "083813.755000",
          "083816.265000",
          "083818.775000",
          "083821.285000",
          "083823.795000",
          "083826.305000",
          "083828.815000",
          "083831.325000",
          "083833.835000",
          "083836.345000",
          "083838.855000",
          "083841.365000",
          "083843.875000",
          "083846.385000",
          "083848.895000",
          "083851.405000",
          "083853.915000",
          "083856.425000",
          "083858.935000",
          "083901.445000",
          "083903.955000",
          "083906.465000",
          "083908.975000",
          "083911.485000",
          "083913.995000",
          "083916.505000",
          "083919.015000",
          "083921.525000",
          "083924.035000",
          "083926.547500",
          "083929.057500",
          "083931.567500",
          "083934.077500",
          "083936.587500",
          "083939.097500",
          "083941.607500",
          "083944.117500",
          "083946.627500",
          "083949.137500",
          "083951.647500",
          "083954.157500",
          "083956.667500",
          "083959.177500",
          "084001.687500",
          "084004.197500",
          "084006.707500",
          "084009.217500",
          "084011.727500",
          "084014.237500",
          "084016.747500",
          "084019.257500",
          "084021.767500"
        ],
        "ContentTime": [
          "083334.984000",
          "083337.484000",
          "083339.984000",
          "083342.484000",
          "083344.984000",
          "083347.484000",
          "083349.984000",
          "083352.484000",
          "083354.984000",
          "083357.484000",
          "083359.984000",
          "083402.484000",
          "083404.984000",
          "083407.484000",
          "083409.984000",
          "083412.484000",
          "083414.984000",
          "083417.484000",
          "083419.984000",
          "083422.484000",
          "083424.984000",
          "083427.484000",
          "083429.984000",
          "083432.484000",
          "083434.984000",
          "083437.484000",
          "083439.984000",
          "083442.484000",
          "083444.984000",
          "083447.484000",
          "083449.984000",
          "083452.484000",
          "083454.984000",
          "083457.484000",
          "083459.984000",
          "083502.484000",
          "083504.984000",
          "083507.484000",
          "083509.984000",
          "083512.484000",
          "083514.984000",
          "083517.484000",
          "083519.984000",
          "083522.484000",
          "083524.984000",
          "083527.484000",
          "083529.984000",
          "083532.484000",
          "083534.984000",
          "083537.484000",
          "083539.984000",
          "083542.484000",
          "083544.984000",
          "083547.484000",
          "083549.984000",
          "083552.484000",
          "083554.984000",
          "083557.484000",
          "083559.984000",
          "083602.484000",
          "083604.984000",
          "083607.484000",
          "083609.984000",
          "083612.484000",
          "083614.984000",
          "083617.484000",
          "083619.984000",
          "083622.484000",
          "083624.984000",
          "083627.484000",
          "083629.984000",
          "083632.484000",
          "083634.984000",
          "083637.484000",
          "083639.984000",
          "083642.484000",
          "083644.984000",
          "083647.484000",
          "083649.984000",
          "083652.484000",
          "083654.984000",
          "083657.484000",
          "083659.984000",
          "083702.484000",
          "083704.984000",
          "083707.484000",
          "083709.984000",
          "083712.484000",
          "083714.984000",
          "083717.484000",
          "083719.984000",
          "083722.484000",
          "083724.984000",
          "083727.484000",
          "083729.984000",
          "083732.484000",
          "083734.984000",
          "083737.484000",
          "083739.984000",
          "083742.484000",
          "083744.984000",
          "083747.484000",
          "083749.984000",
          "083752.484000",
          "083754.984000",
          "083757.484000",
          "083759.984000",
          "083802.484000",
          "083804.984000",
          "083807.484000",
          "083809.984000",
          "083812.484000",
          "083814.984000",
          "083817.484000",
          "083819.984000",
          "083822.484000",
          "083824.984000",
          "083827.484000",
          "083829.984000",
          "083832.484000",
          "083834.984000",
          "083837.484000",
          "083839.984000",
          "083842.484000",
          "083844.984000",
          "083847.484000",
          "083849.984000",
          "083852.484000",
          "083854.984000",
          "083857.484000",
          "083859.984000",
          "083902.484000",
          "083904.984000",
          "083907.484000",
          "083909.984000",
          "083912.484000",
          "083914.984000",
          "083917.484000",
          "083919.984000",
          "083922.484000",
          "083924.984000",
          "083927.484000",
          "083929.984000",
          "083932.484000",
          "083934.984000",
          "083937.484000",
          "083939.984000",
          "083942.484000",
          "083944.984000",
          "083947.484000",
          "083949.984000",
          "083952.484000",
          "083954.984000",
          "083957.484000",
          "083959.984000",
          "084002.484000",
          "084004.984000",
          "084007.484000",
          "084009.984000",
          "084012.484000",
          "084014.984000",
          "084017.484000",
          "084019.984000",
          "084022.015000"
        ],
        "InstanceCreationTime": [
          "083334.984000",
          "083337.484000",
          "083339.984000",
          "083342.484000",
          "083344.984000",
          "083347.484000",
          "083349.984000",
          "083352.484000",
          "083354.984000",
          "083357.484000",
          "083359.984000",
          "083402.484000",
          "083404.984000",
          "083407.484000",
          "083409.984000",
          "083412.484000",
          "083414.984000",
          "083417.484000",
          "083419.984000",
          "083422.484000",
          "083424.984000",
          "083427.484000",
          "083429.984000",
          "083432.484000",
          "083434.984000",
          "083437.484000",
          "083439.984000",
          "083442.484000",
          "083444.984000",
          "083447.484000",
          "083449.984000",
          "083452.484000",
          "083454.984000",
          "083457.484000",
          "083459.984000",
          "083502.484000",
          "083504.984000",
          "083507.484000",
          "083509.984000",
          "083512.484000",
          "083514.984000",
          "083517.484000",
          "083519.984000",
          "083522.484000",
          "083524.984000",
          "083527.484000",
          "083529.984000",
          "083532.484000",
          "083534.984000",
          "083537.484000",
          "083539.984000",
          "083542.484000",
          "083544.984000",
          "083547.484000",
          "083549.984000",
          "083552.484000",
          "083554.984000",
          "083557.484000",
          "083559.984000",
          "083602.484000",
          "083604.984000",
          "083607.484000",
          "083609.984000",
          "083612.484000",
          "083614.984000",
          "083617.484000",
          "083619.984000",
          "083622.484000",
          "083624.984000",
          "083627.484000",
          "083629.984000",
          "083632.484000",
          "083634.984000",
          "083637.484000",
          "083639.984000",
          "083642.484000",
          "083644.984000",
          "083647.484000",
          "083649.984000",
          "083652.484000",
          "083654.984000",
          "083657.484000",
          "083659.984000",
          "083702.484000",
          "083704.984000",
          "083707.484000",
          "083709.984000",
          "083712.484000",
          "083714.984000",
          "083717.484000",
          "083719.984000",
          "083722.484000",
          "083724.984000",
          "083727.484000",
          "083729.984000",
          "083732.484000",
          "083734.984000",
          "083737.484000",
          "083739.984000",
          "083742.484000",
          "083744.984000",
          "083747.484000",
          "083749.984000",
          "083752.484000",
          "083754.984000",
          "083757.484000",
          "083759.984000",
          "083802.484000",
          "083804.984000",
          "083807.484000",
          "083809.984000",
          "083812.484000",
          "083814.984000",
          "083817.484000",
          "083819.984000",
          "083822.484000",
          "083824.984000",
          "083827.484000",
          "083829.984000",
          "083832.484000",
          "083834.984000",
          "083837.484000",
          "083839.984000",
          "083842.484000",
          "083844.984000",
          "083847.484000",
          "083849.984000",
          "083852.484000",
          "083854.984000",
          "083857.484000",
          "083859.984000",
          "083902.484000",
          "083904.984000",
          "083907.484000",
          "083909.984000",
          "083912.484000",
          "083914.984000",
          "083917.484000",
          "083919.984000",
          "083922.484000",
          "083924.984000",
          "083927.484000",
          "083929.984000",
          "083932.484000",
          "083934.984000",
          "083937.484000",
          "083939.984000",
          "083942.484000",
          "083944.984000",
          "083947.484000",
          "083949.984000",
          "083952.484000",
          "083954.984000",
          "083957.484000",
          "083959.984000",
          "084002.484000",
          "084004.984000",
          "084007.484000",
          "084009.984000",
          "084012.484000",
          "084014.984000",
          "084017.484000",
          "084019.984000",
          "084022.015000"
        ],
        "InstanceNumber": [
          1,
          2,
          3,
          4,
          5,
          6,
          7,
          8,
          9,
          10,
          11,
          12,
          13,
          14,
          15,
          16,
          17,
          18,
          19,
          20,
          21,
          22,
          23,
          24,
          25,
          26,
          27,
          28,
          29,
          30,
          31,
          32,
          33,
          34,
          35,
          36,
          37,
          38,
          39,
          40,
          41,
          42,
          43,
          44,
          45,
          46,
          47,
          48,
          49,
          50,
          51,
          52,
          53,
          54,
          55,
          56,
          57,
          58,
          59,
          60,
          61,
          62,
          63,
          64,
          65,
          66,
          67,
          68,
          69,
          70,
          71,
          72,
          73,
          74,
          75,
          76,
          77,
          78,
          79,
          80,
          81,
          82,
          83,
          84,
          85,
          86,
          87,
          88,
          89,
          90,
          91,
          92,
          93,
          94,
          95,
          96,
          97,
          98,
          99,
          100,
          101,
          102,
          103,
          104,
          105,
          106,
          107,
          108,
          109,
          110,
          111,
          112,
          113,
          114,
          115,
          116,
          117,
          118,
          119,
          120,
          121,
          122,
          123,
          124,
          125,
          126,
          127,
          128,
          129,
          130,
          131,
          132,
          133,
          134,
          135,
          136,
          137,
          138,
          139,
          140,
          141,
          142,
          143,
          144,
          145,
          146,
          147,
          148,
          149,
          150,
          151,
          152,
          153,
          154,
          155,
          156,
          157,
          158,
          159,
          160,
          161,
          162,
          163,
          164
        ],
        "LargestImagePixelValue": [
          1365,
          1175,
          1161,
          1209,
          1196,
          1341,
          1310,
          1394,
          1165,
          1162,
          1135,
          1374,
          1263,
          1271,
          1233,
          1186,
          1363,
          1318,
          1436,
          1254,
          1126,
          1182,
          1251,
          1240,
          1197,
          1275,
          1132,
          1261,
          1180,
          1153,
          1172,
          1301,
          1154,
          1204,
          1288,
          1148,
          1075,
          1144,
          1630,
          1413,
          1638,
          1222,
          1277,
          1412,
          1147,
          1163,
          1159,
          1192,
          1173,
          1192,
          1202,
          1157,
          1184,
          1166,
          1134,
          1194,
          1148,
          1383,
          1136,
          1512,
          1599,
          1702,
          1410,
          1274,
          1326,
          1330,
          1207,
          1370,
          1259,
          1245,
          1264,
          1246,
          1326,
          1340,
          1419,
          1462,
          1275,
          1241,
          1294,
          1293,
          1201,
          1203,
          1224,
          1797,
          1377,
          1191,
          1193,
          1590,
          1715,
          1197,
          1297,
          1614,
          1418,
          1553,
          1344,
          1439,
          1491,
          1488,
          1313,
          1186,
          1210,
          1292,
          1201,
          1348,
          1263,
          1113,
          1313,
          1687,
          1251,
          1205,
          1275,
          1211,
          1396,
          1193,
          1249,
          1217,
          1434,
          1578,
          1520,
          1379,
          1290,
          1257,
          1311,
          1334,
          1283,
          1274,
          1405,
          1191,
          1142,
          1240,
          1172,
          1391,
          1869,
          1327,
          1328,
          1530,
          1321,
          1335,
          1375,
          1459,
          1616,
          1209,
          1273,
          1906,
          1940,
          1356,
          1445,
          1465,
          1258,
          1225,
          1250,
          1186,
          1252,
          1470,
          1272,
          1238,
          1255,
          1184,
          1384,
          1282,
          1301,
          1131,
          1456,
          1562
        ],
        "WindowCenter": [
          578.0,
          581.0,
          578.0,
          573.0,
          565.0,
          581.0,
          578.0,
          576.0,
          576.0,
          578.0,
          576.0,
          557.0,
          583.0,
          580.0,
          579.0,
          579.0,
          580.0,
          580.0,
          580.0,
          578.0,
          577.0,
          578.0,
          576.0,
          577.0,
          577.0,
          577.0,
          579.0,
          579.0,
          578.0,
          579.0,
          580.0,
          585.0,
          583.0,
          584.0,
          582.0,
          573.0,
          558.0,
          554.0,
          577.0,
          560.0,
          578.0,
          567.0,
          579.0,
          580.0,
          578.0,
          580.0,
          581.0,
          582.0,
          578.0,
          579.0,
          580.0,
          580.0,
          582.0,
          580.0,
          566.0,
          584.0,
          575.0,
          587.0,
          574.0,
          596.0,
          591.0,
          576.0,
          581.0,
          586.0,
          582.0,
          588.0,
          572.0,
          577.0,
          586.0,
          555.0,
          569.0,
          591.0,
          587.0,
          588.0,
          595.0,
          602.0,
          611.0,
          592.0,
          616.0,
          614.0,
          607.0,
          602.0,
          588.0,
          592.0,
          599.0,
          588.0,
          584.0,
          595.0,
          577.0,
          580.0,
          609.0,
          599.0,
          601.0,
          601.0,
          603.0,
          599.0,
          600.0,
          591.0,
          603.0,
          599.0,
          602.0,
          590.0,
          591.0,
          612.0,
          602.0,
          558.0,
          600.0,
          579.0,
          601.0,
          601.0,
          603.0,
          604.0,
          604.0,
          593.0,
          604.0,
          604.0,
          599.0,
          605.0,
          599.0,
          599.0,
          604.0,
          600.0,
          604.0,
          598.0,
          604.0,
          605.0,
          604.0,
          602.0,
          581.0,
          601.0,
          600.0,
          600.0,
          597.0,
          602.0,
          602.0,
          602.0,
          607.0,
          601.0,
          607.0,
          600.0,
          590.0,
          590.0,
          607.0,
          570.0,
          593.0,
          591.0,
          591.0,
          596.0,
          596.0,
          597.0,
