{
  "aor": 0.020666524390243902,
  "aqi": 0.009866036890243901,
  "bids_meta": {
    "AcquisitionMatrixPE": 64,
    "AcquisitionNumber": 1,
    "AcquisitionTime": "11:19:53.075000",
    "BandwidthPerPixelPhaseEncode": 26.483,
    "BaseResolution": 64,
    "BodyPartExamined": "HEAD",
    "CogAtlasID": "TODO",
    "ConversionSoftware": "dcm2niix",
    "ConversionSoftwareVersion": "v1.0.20171017 GCC6.3.0",
    "DerivedVendorReportedEchoSpacing": 0.000590001,
    "DeviceSerialNumber": "35177",
    "DwellTime": 4.1e-06,
    "EchoTime": 0.027,
    "EffectiveEchoSpacing": 0.000590001,
    "FlipAngle": 90,
    "ImageOrientationPatientDICOM": [
      0.998568,
      0.0503681,
      -0.0180296,
      -0.0477107,
      0.990909,
      0.125787
    ],
    "ImageType": [
      "ORIGINAL",
      "PRIMARY",
      "M",
      "ND",
      "NORM",
      "MOSAIC"
    ],
    "InPlanePhaseEncodingDirectionDICOM": "COL",
    "InstitutionAddress": "Scott_Ave._4525_St._Louis_MO_US_63110",
    "InstitutionName": "Washington_University",
    "InstitutionalDepartmentName": "Department",
    "MRAcquisitionType": "2D",
    "MagneticFieldStrength": 3,
    "Manufacturer": "Siemens",
    "ManufacturersModelName": "TrioTim",
    "Modality": "MR",
    "PartialFourier": 1,
    "PatientPosition": "HFS",
    "PercentPhaseFOV": 100,
    "PhaseEncodingDirection": "j-",
    "PhaseEncodingSteps": 64,
    "PhaseResolution": 1,
    "PixelBandwidth": 1905,
    "ProcedureStepDescription": "head_GREENE",
    "ProtocolName": "ep2d_bold_rest_feedback_movie",
    "PulseSequenceDetails": "%SiemensSeq%_ep2d_bold",
    "ReceiveCoilName": "HeadMatrix",
    "ReconMatrixPE": 64,
    "RepetitionTime": 2.5,
    "SAR": 0.152397,
    "ScanOptions": "FS",
    "ScanningSequence": "EP",
    "SequenceName": "_epfid2d1_64",
    "SequenceVariant": "SK",
    "SeriesDescription": "ep2d_bold_rest_feedback_movie",
    "SeriesNumber": 16,
    "ShimSetting": [
      -243,
      -19609,
      8005,
      333,
      108,
      -597,
      328,
      -70
    ],
    "SliceThickness": 4,
    "SliceTiming": [
      1.255,
      0,
      1.3325,
      0.0775,
      1.41,
      0.155,
      1.49,
      0.235,
      1.5675,
      0.3125,
      1.645,
      0.39,
      1.725,
      0.47,
      1.8025,
      0.5475,
      1.88,
      0.6275,
      1.96,
      0.705,
      2.0375,
      0.7825,
      2.1175,
      0.8625,
      2.195,
      0.94,
      2.2725,
      1.0175,
      2.3525,
      1.0975,
      2.43,
      1.175
    ],
    "SoftwareVersions": "syngo_MR_B17",
    "SpacingBetweenSlices": 4,
    "StationName": "MRC35177",
    "TaskName": "restmoviefixed",
    "TotalReadoutTime": 0.0371701,
    "TxRefAmp": 343.407,
    "dataset": "ds000256",
    "dcmmeta_affine": [
      [
        -3.994271755218506,
        -0.19084277749061584,
        -0.09680544584989548,
        139.7621612548828
      ],
      [
        -0.20147255063056946,
        3.963637351989746,
        0.49898582696914673,
        -124.23081970214844
      ],
      [
        -0.07211845368146896,
        -0.5031471252441406,
        3.967574119567871,
        -17.4912166595459
      ],
      [
        0.0,
        0.0,
        0.0,
        1.0
      ]
    ],
    "dcmmeta_reorient_transform": [
      [
        0.0,
        -1.0,
        0.0,
        63.0
      ],
      [
        1.0,
        0.0,
        0.0,
        0.0
      ],
      [
        0.0,
        0.0,
        1.0,
        0.0
      ],
      [
        0.0,
        0.0,
        0.0,
        1.0
      ]
    ],
    "dcmmeta_shape": [
      64,
      64,
      32,
      164
    ],
    "dcmmeta_slice_dim": 2,
    "dcmmeta_version": 0.6,
    "global": {
      "const": {
        "AccessionNumber": ".",
        "AcquisitionMatrix": [
          64,
          0,
          0,
          64
        ],
        "AngioFlag": "N",
        "BitsAllocated": 16,
        "BitsStored": 12,
        "BodyPartExamined": "HEAD",
        "Columns": 384,
        "DeidentificationMethodCodeSequence": [
          {
            "CodeMeaning": "XNAT Edit Script",
            "CodeValue": "625500",
            "CodingSchemeDesignator": "XNAT",
            "CodingSchemeVersion": "0.1"
          }
        ],
        "EchoNumbers": 1,
        "EchoTime": 27.0,
        "EchoTrainLength": 1,
        "FlipAngle": 90.0,
        "HighBit": 11,
        "ImageOrientationPatient": [
          0.99856796650725,
          0.05036813777651,
          -0.0180296134872,
          -0.047710695677,
          0.99090936701142,
          0.12578678741044
        ],
        "ImagePositionPatient": [
          -736.28772378795,
          -791.895941697,
          -118.15407787142
        ],
        "ImageType": [
          "ORIGINAL",
          "PRIMARY",
          "M",
          "ND",
          "NORM",
          "MOSAIC"
        ],
        "ImagedNucleus": "1H",
        "ImagingFrequency": 123.255756,
        "InPlanePhaseEncodingDirection": "COL",
        "MRAcquisitionType": "2D",
        "MagneticFieldStrength": 3.0,
        "Manufacturer": "SIEMENS",
        "ManufacturerModelName": "TrioTim",
        "Modality": "MR",
        "NumberOfAverages": 1.0,
        "NumberOfPhaseEncodingSteps": 64,
        "PercentPhaseFieldOfView": 100.0,
        "PercentSampling": 100.0,
        "PerformedProcedureStepStartTime": "100414.234000",
        "PhotometricInterpretation": "MONOCHROME2",
        "PixelBandwidth": 1905.0,
        "PixelRepresentation": 0,
        "PixelSpacing": [
          4.0,
          4.0
        ],
        "PositionReferenceIndicator": "",
        "ProtocolName": "ep2d_bold_rest_feedback _movie",
        "RepetitionTime": 2500.0,
        "Rows": 384,
        "SAR": 0.15239677514583,
        "SamplesPerPixel": 1,
        "ScanOptions": "FS",
        "ScanningSequence": "EP",
        "SequenceName": "*epfid2d1_64",
        "SequenceVariant": "SK",
        "SeriesDescription": "ep2d_bold_rest_feedback _movie",
        "SeriesNumber": 16,
        "SeriesTime": "111954.921000",
        "SliceLocation": -36.229211235297,
        "SliceThickness": 4.0,
        "SmallestImagePixelValue": 0,
        "SoftwareVersions": "syngo MR B17",
        "SpacingBetweenSlices": 4.0000002891891,
        "SpecificCharacterSet": "ISO_IR 100",
        "StudyID": "1",
        "StudyTime": "100414.156000",
        "TransmitCoilName": "Body",
        "VariableFlipAngleFlag": "N",
        "WindowCenterWidthExplanation": "Algo1",
        "dBdt": 0.0
      },
      "slices": {}
    },
    "modality": "bold",
    "subject_id": "CTS200",
    "task_id": "restmoviefixed",
    "time": {
      "samples": {
        "AcquisitionNumber": [
          1,
          2,
          3,
          4,
          5,
          6,
          7,
          8,
          9,
          10,
          11,
          12,
          13,
          14,
          15,
          16,
          17,
          18,
          19,
          20,
          21,
          22,
          23,
          24,
          25,
          26,
          27,
          28,
          29,
          30,
          31,
          32,
          33,
          34,
          35,
          36,
          37,
          38,
          39,
          40,
          41,
          42,
          43,
          44,
          45,
          46,
          47,
          48,
          49,
          50,
          51,
          52,
          53,
          54,
          55,
          56,
          57,
          58,
          59,
          60,
          61,
          62,
          63,
          64,
          65,
          66,
          67,
          68,
          69,
          70,
          71,
          72,
          73,
          74,
          75,
          76,
          77,
          78,
          79,
          80,
          81,
          82,
          83,
          84,
          85,
          86,
          87,
          88,
          89,
          90,
          91,
          92,
          93,
          94,
          95,
          96,
          97,
          98,
          99,
          100,
          101,
          102,
          103,
          104,
          105,
          106,
          107,
          108,
          109,
          110,
          111,
          112,
          113,
          114,
          115,
          116,
          117,
          118,
          119,
          120,
          121,
          122,
          123,
          124,
          125,
          126,
          127,
          128,
          129,
          130,
          131,
          132,
          133,
          134,
          135,
          136,
          137,
          138,
          139,
          140,
          141,
          142,
          143,
          144,
          145,
          146,
          147,
          148,
          149,
          150,
          151,
          152,
          153,
          154,
          155,
          156,
          157,
          158,
          159,
          160,
          161,
          162,
          163,
          164
        ],
        "AcquisitionTime": [
          "111953.075000",
          "111955.585000",
          "111958.095000",
          "112000.605000",
          "112003.115000",
          "112005.625000",
          "112008.135000",
          "112010.645000",
          "112013.155000",
          "112015.665000",
          "112018.175000",
          "112020.685000",
          "112023.195000",
          "112025.705000",
          "112028.215000",
          "112030.725000",
          "112033.235000",
          "112035.745000",
          "112038.255000",
          "112040.765000",
          "112043.275000",
          "112045.785000",
          "112048.295000",
          "112050.805000",
          "112053.315000",
          "112055.825000",
          "112058.335000",
          "112100.845000",
          "112103.355000",
          "112105.865000",
          "112108.375000",
          "112110.885000",
          "112113.395000",
          "112115.905000",
          "112118.415000",
          "112120.925000",
          "112123.435000",
          "112125.945000",
          "112128.455000",
          "112130.965000",
          "112133.475000",
          "112135.985000",
          "112138.495000",
          "112141.005000",
          "112143.515000",
          "112146.025000",
          "112148.535000",
          "112151.045000",
          "112153.555000",
          "112156.065000",
          "112158.575000",
          "112201.085000",
          "112203.595000",
          "112206.105000",
          "112208.615000",
          "112211.125000",
          "112213.635000",
          "112216.145000",
          "112218.655000",
          "112221.165000",
          "112223.675000",
          "112226.185000",
          "112228.697500",
          "112231.207500",
          "112233.717500",
          "112236.227500",
          "112238.737500",
          "112241.247500",
          "112243.757500",
          "112246.267500",
          "112248.777500",
          "112251.287500",
          "112253.797500",
          "112256.307500",
          "112258.817500",
          "112301.327500",
          "112303.837500",
          "112306.347500",
          "112308.857500",
          "112311.367500",
          "112313.877500",
          "112316.387500",
          "112318.897500",
          "112321.407500",
          "112323.917500",
          "112326.427500",
          "112328.937500",
          "112331.447500",
          "112333.957500",
          "112336.467500",
          "112338.977500",
          "112341.487500",
          "112343.997500",
          "112346.507500",
          "112349.017500",
          "112351.527500",
          "112354.037500",
          "112356.547500",
          "112359.057500",
          "112401.567500",
          "112404.077500",
          "112406.587500",
          "112409.097500",
          "112411.607500",
          "112414.117500",
          "112416.627500",
          "112419.137500",
          "112421.647500",
          "112424.157500",
          "112426.667500",
          "112429.177500",
          "112431.687500",
          "112434.197500",
          "112436.707500",
          "112439.217500",
          "112441.727500",
          "112444.237500",
          "112446.747500",
          "112449.257500",
          "112451.767500",
          "112454.277500",
          "112456.787500",
          "112459.297500",
          "112501.807500",
          "112504.317500",
          "112506.830000",
          "112509.340000",
          "112511.850000",
          "112514.360000",
          "112516.870000",
          "112519.380000",
          "112521.890000",
          "112524.400000",
          "112526.910000",
          "112529.420000",
          "112531.930000",
          "112534.440000",
          "112536.950000",
          "112539.460000",
          "112541.970000",
          "112544.480000",
          "112546.990000",
          "112549.500000",
          "112552.010000",
          "112554.520000",
          "112557.030000",
          "112559.540000",
          "112602.050000",
          "112604.560000",
          "112607.070000",
          "112609.580000",
          "112612.090000",
          "112614.600000",
          "112617.110000",
          "112619.620000",
          "112622.130000",
          "112624.640000",
          "112627.150000",
          "112629.660000",
          "112632.170000",
          "112634.680000",
          "112637.190000",
          "112639.700000",
          "112642.210000"
        ],
        "ContentTime": [
          "111954.937000",
          "111957.421000",
          "111959.921000",
          "112002.421000",
          "112004.921000",
          "112007.421000",
          "112009.921000",
          "112012.421000",
          "112014.921000",
          "112017.421000",
          "112019.921000",
          "112022.421000",
          "112024.921000",
          "112027.421000",
          "112029.921000",
          "112032.421000",
          "112034.921000",
          "112037.421000",
          "112039.921000",
          "112042.421000",
          "112044.921000",
          "112047.421000",
          "112049.921000",
          "112052.421000",
          "112054.921000",
          "112057.421000",
          "112059.921000",
          "112102.421000",
          "112104.921000",
          "112107.421000",
          "112109.921000",
          "112112.421000",
          "112114.921000",
          "112117.421000",
          "112119.921000",
          "112122.421000",
          "112124.921000",
          "112127.421000",
          "112129.921000",
          "112132.421000",
          "112134.921000",
          "112137.421000",
          "112139.921000",
          "112142.421000",
          "112144.921000",
          "112147.421000",
          "112149.921000",
          "112152.421000",
          "112154.921000",
          "112157.421000",
          "112159.921000",
          "112202.421000",
          "112204.921000",
          "112207.421000",
          "112209.921000",
          "112212.421000",
          "112214.921000",
          "112217.421000",
          "112219.921000",
          "112222.421000",
          "112224.921000",
          "112227.421000",
          "112229.921000",
          "112232.421000",
          "112234.921000",
          "112237.421000",
          "112239.921000",
          "112242.421000",
          "112244.921000",
          "112247.421000",
          "112249.921000",
          "112252.421000",
          "112254.921000",
          "112257.421000",
          "112259.921000",
          "112302.421000",
          "112304.921000",
          "112307.421000",
          "112309.921000",
          "112312.421000",
          "112314.921000",
          "112317.421000",
          "112319.921000",
          "112322.421000",
          "112324.921000",
          "112327.421000",
          "112329.921000",
          "112332.421000",
          "112334.921000",
          "112337.421000",
          "112339.921000",
          "112342.421000",
          "112344.921000",
          "112347.421000",
          "112349.921000",
          "112352.421000",
          "112354.921000",
          "112357.421000",
          "112359.921000",
          "112402.421000",
          "112404.921000",
          "112407.421000",
          "112409.921000",
          "112412.421000",
          "112414.921000",
          "112417.421000",
          "112419.921000",
          "112422.421000",
          "112424.921000",
          "112427.421000",
          "112429.921000",
          "112432.421000",
          "112434.921000",
          "112437.421000",
          "112439.921000",
          "112442.421000",
          "112444.921000",
          "112447.421000",
          "112449.921000",
          "112452.421000",
          "112454.921000",
          "112457.421000",
          "112459.921000",
          "112502.421000",
          "112504.921000",
          "112507.421000",
          "112509.921000",
          "112512.421000",
          "112514.921000",
          "112517.421000",
          "112519.921000",
          "112522.421000",
          "112524.921000",
          "112527.421000",
          "112529.921000",
          "112532.421000",
          "112534.921000",
          "112537.421000",
          "112539.921000",
          "112542.421000",
          "112544.921000",
          "112547.421000",
          "112549.921000",
          "112552.421000",
          "112554.921000",
          "112557.421000",
          "112559.921000",
          "112602.421000",
          "112604.921000",
          "112607.421000",
          "112609.921000",
          "112612.421000",
          "112614.921000",
          "112617.421000",
          "112619.921000",
          "112622.421000",
          "112624.921000",
          "112627.421000",
          "112629.921000",
          "112632.421000",
          "112634.921000",
          "112637.421000",
          "112639.921000",
          "112642.234000"
        ],
        "InstanceCreationTime": [
          "111954.937000",
          "111957.421000",
          "111959.921000",
          "112002.421000",
          "112004.921000",
          "112007.421000",
          "112009.921000",
          "112012.421000",
          "112014.921000",
          "112017.421000",
          "112019.921000",
          "112022.421000",
          "112024.921000",
          "112027.421000",
          "112029.921000",
          "112032.421000",
          "112034.921000",
          "112037.421000",
          "112039.921000",
          "112042.421000",
          "112044.921000",
          "112047.421000",
          "112049.921000",
          "112052.421000",
          "112054.921000",
          "112057.421000",
          "112059.921000",
          "112102.421000",
          "112104.921000",
          "112107.421000",
          "112109.921000",
          "112112.421000",
          "112114.921000",
          "112117.421000",
          "112119.921000",
          "112122.421000",
          "112124.921000",
          "112127.421000",
          "112129.921000",
          "112132.421000",
          "112134.921000",
          "112137.421000",
          "112139.921000",
          "112142.421000",
          "112144.921000",
          "112147.421000",
          "112149.921000",
          "112152.421000",
          "112154.921000",
          "112157.421000",
          "112159.921000",
          "112202.421000",
          "112204.921000",
          "112207.421000",
          "112209.921000",
          "112212.421000",
          "112214.921000",
          "112217.421000",
          "112219.921000",
          "112222.421000",
          "112224.921000",
          "112227.421000",
          "112229.921000",
          "112232.421000",
          "112234.921000",
          "112237.421000",
          "112239.921000",
          "112242.421000",
          "112244.921000",
          "112247.421000",
          "112249.921000",
          "112252.421000",
          "112254.921000",
          "112257.421000",
          "112259.921000",
          "112302.421000",
          "112304.921000",
          "112307.421000",
          "112309.921000",
          "112312.421000",
          "112314.921000",
          "112317.421000",
          "112319.921000",
          "112322.421000",
          "112324.921000",
          "112327.421000",
          "112329.921000",
          "112332.421000",
          "112334.921000",
          "112337.421000",
          "112339.921000",
          "112342.421000",
          "112344.921000",
          "112347.421000",
          "112349.921000",
          "112352.421000",
          "112354.921000",
          "112357.421000",
          "112359.921000",
          "112402.421000",
          "112404.921000",
          "112407.421000",
          "112409.921000",
          "112412.421000",
          "112414.921000",
          "112417.421000",
          "112419.921000",
          "112422.421000",
          "112424.921000",
          "112427.421000",
          "112429.921000",
          "112432.421000",
          "112434.921000",
          "112437.421000",
          "112439.921000",
          "112442.421000",
          "112444.921000",
          "112447.421000",
          "112449.921000",
          "112452.421000",
          "112454.921000",
          "112457.421000",
          "112459.921000",
          "112502.421000",
          "112504.921000",
          "112507.421000",
          "112509.921000",
          "112512.421000",
          "112514.921000",
          "112517.421000",
          "112519.921000",
          "112522.421000",
          "112524.921000",
          "112527.421000",
          "112529.921000",
          "112532.421000",
          "112534.921000",
          "112537.421000",
          "112539.921000",
          "112542.421000",
          "112544.921000",
          "112547.421000",
          "112549.921000",
          "112552.421000",
          "112554.921000",
          "112557.421000",
          "112559.921000",
          "112602.421000",
          "112604.921000",
          "112607.421000",
          "112609.921000",
          "112612.421000",
          "112614.921000",
          "112617.421000",
          "112619.921000",
          "112622.421000",
          "112624.921000",
          "112627.421000",
          "112629.921000",
          "112632.421000",
          "112634.921000",
          "112637.421000",
          "112639.921000",
          "112642.234000"
        ],
        "InstanceNumber": [
          1,
          2,
          3,
          4,
          5,
          6,
          7,
          8,
          9,
          10,
          11,
          12,
          13,
          14,
          15,
          16,
          17,
          18,
          19,
          20,
          21,
          22,
          23,
          24,
          25,
          26,
          27,
          28,
          29,
          30,
          31,
          32,
          33,
          34,
          35,
          36,
          37,
          38,
          39,
          40,
          41,
          42,
          43,
          44,
          45,
          46,
          47,
          48,
          49,
          50,
          51,
          52,
          53,
          54,
          55,
          56,
          57,
          58,
          59,
          60,
          61,
          62,
          63,
          64,
          65,
          66,
          67,
          68,
          69,
          70,
          71,
          72,
          73,
          74,
          75,
          76,
          77,
          78,
          79,
          80,
          81,
          82,
          83,
          84,
          85,
          86,
          87,
          88,
          89,
          90,
          91,
          92,
          93,
          94,
          95,
          96,
          97,
          98,
          99,
          100,
          101,
          102,
          103,
          104,
          105,
          106,
          107,
          108,
          109,
          110,
          111,
          112,
          113,
          114,
          115,
          116,
          117,
          118,
          119,
          120,
          121,
          122,
          123,
          124,
          125,
          126,
          127,
          128,
          129,
          130,
          131,
          132,
          133,
          134,
          135,
          136,
          137,
          138,
          139,
          140,
          141,
          142,
          143,
          144,
          145,
          146,
          147,
          148,
          149,
          150,
          151,
          152,
          153,
          154,
          155,
          156,
          157,
          158,
          159,
          160,
          161,
          162,
          163,
          164
        ],
        "LargestImagePixelValue": [
          1223,
          1254,
          1252,
          1186,
          1192,
          1207,
          1213,
          1220,
          1192,
          1203,
          1231,
          1212,
          1226,
          1215,
          1215,
          1210,
          1232,
          1234,
          1231,
          1234,
          1235,
          1212,
          1262,
          1247,
          1241,
          1234,
          1242,
          1225,
          1208,
          1237,
          1220,
          1230,
          1229,
          1220,
          1227,
          1229,
          1240,
          1245,
          1256,
          1236,
          1210,
          1216,
          1213,
          1226,
          1190,
          1205,
          1217,
          1234,
          1211,
          1203,
          1230,
          1221,
          1208,
          1203,
          1195,
          1209,
          1220,
          1213,
          1212,
          1205,
          1215,
          1227,
          1225,
          1198,
          1213,
          1216,
          1207,
          1229,
          1192,
          1210,
          1221,
          1227,
          1204,
          1203,
          1199,
          1211,
          1205,
          1234,
          1219,
          1248,
          1211,
          1237,
          1227,
          1221,
          1225,
          1201,
          1223,
          1218,
          1215,
          1207,
          1218,
          1222,
          1211,
          1208,
          1201,
          1221,
          1219,
          1213,
          1201,
          1208,
          1205,
          1198,
          1215,
          1224,
          1195,
          1224,
          1208,
          1196,
          1211,
          1206,
          1206,
          1218,
          1221,
          1221,
          1206,
          1200,
          1197,
          1225,
          1205,
          1200,
          1200,
          1237,
          1219,
          1214,
          1202,
          1203,
          1212,
          1202,
          1210,
          1207,
          1213,
          1203,
          1213,
          1215,
          1204,
          1213,
          1210,
          1216,
          1212,
          1232,
          1205,
          1210,
          1226,
          1216,
          1219,
          1211,
          1234,
          1233,
          1241,
          1236,
          1232,
          1211,
          1194,
          1395,
          1290,
          1220,
          1209,
          1196,
          1205,
          1210,
          1207,
          1208,
          1214,
          1226
        ],
        "WindowCenter": [
          574.0,
          573.0,
          575.0,
          573.0,
          574.0,
          572.0,
          576.0,
          575.0,
          575.0,
          574.0,
          575.0,
          574.0,
          574.0,
          575.0,
          574.0,
          575.0,
          575.0,
          574.0,
          575.0,
          574.0,
          574.0,
          575.0,
          576.0,
          576.0,
          575.0,
          575.0,
          575.0,
          575.0,
          576.0,
          576.0,
          576.0,
          575.0,
          576.0,
          576.0,
          576.0,
          575.0,
          576.0,
          576.0,
          576.0,
          575.0,
          577.0,
          576.0,
          575.0,
          575.0,
          576.0,
          576.0,
          576.0,
          575.0,
          576.0,
          575.0,
          576.0,
          575.0,
          576.0,
          576.0,
          576.0,
          575.0,
          576.0,
          576.0,
          577.0,
          577.0,
          577.0,
          577.0,
          576.0,
          576.0,
          576.0,
          576.0,
          576.0,
          576.0,
          577.0,
          576.0,
          575.0,
          576.0,
          575.0,
          576.0,
          576.0,
          577.0,
          577.0,
          577.0,
          577.0,
          577.0,
          576.0,
          576.0,
          576.0,
          576.0,
          576.0,
          575.0,
          576.0,
          576.0,
          575.0,
          576.0,
          576.0,
          575.0,
          575.0,
          575.0,
          574.0,
          575.0,
          575.0,
          575.0,
          575.0,
          575.0,
          576.0,
          575.0,
          575.0,
          575.0,
          575.0,
          574.0,
          575.0,
          575.0,
          576.0,
          575.0,
          575.0,
          574.0,
          574.0,
          575.0,
          575.0,
          575.0,
          575.0,
          575.0,
          576.0,
          576.0,
          577.0,
          576.0,
          576.0,
          576.0,
          576.0,
          576.0,
          576.0,
          577.0,
          576.0,
          577.0,
          577.0,
          576.0,
          576.0,
          578.0,
          578.0,
          577.0,
          577.0,
          578.0,
          577.0,
          577.0,
          577.0,
          577.0,
          578.0,
          577.0,
          577.0,
          577.0,
          576.0,
