{
  "aor": 0.0030920121951219515,
  "aqi": 0.009358220060975609,
  "bids_meta": {
    "AcquisitionMatrixPE": 64,
    "AcquisitionNumber": 1,
    "AcquisitionTime": "11:03:9.397500",
    "BandwidthPerPixelPhaseEncode": 26.483,
    "BaseResolution": 64,
    "BodyPartExamined": "HEAD",
    "CogAtlasID": "TODO",
    "ConversionSoftware": "dcm2niix",
    "ConversionSoftwareVersion": "v1.0.20171017 GCC6.3.0",
    "DerivedVendorReportedEchoSpacing": 0.000590001,
    "DeviceSerialNumber": "35177",
    "DwellTime": 4.1e-06,
    "EchoTime": 0.027,
    "EffectiveEchoSpacing": 0.000590001,
    "FlipAngle": 90,
    "ImageOrientationPatientDICOM": [
      0.998568,
      0.0503681,
      -0.0180296,
      -0.0477107,
      0.990909,
      0.125787
    ],
    "ImageType": [
      "ORIGINAL",
      "PRIMARY",
      "M",
      "ND",
      "NORM",
      "MOSAIC"
    ],
    "InPlanePhaseEncodingDirectionDICOM": "COL",
    "InstitutionAddress": "Scott_Ave._4525_St._Louis_MO_US_63110",
    "InstitutionName": "Washington_University",
    "InstitutionalDepartmentName": "Department",
    "MRAcquisitionType": "2D",
    "MagneticFieldStrength": 3,
    "Manufacturer": "Siemens",
    "ManufacturersModelName": "TrioTim",
    "Modality": "MR",
    "PartialFourier": 1,
    "PatientPosition": "HFS",
    "PercentPhaseFOV": 100,
    "PhaseEncodingDirection": "j-",
    "PhaseEncodingSteps": 64,
    "PhaseResolution": 1,
    "PixelBandwidth": 1905,
    "ProcedureStepDescription": "head_GREENE",
    "ProtocolName": "ep2d_bold_rest5",
    "PulseSequenceDetails": "%SiemensSeq%_ep2d_bold",
    "ReceiveCoilName": "HeadMatrix",
    "ReconMatrixPE": 64,
    "RepetitionTime": 2.5,
    "SAR": 0.152397,
    "ScanOptions": "FS",
    "ScanningSequence": "EP",
    "SequenceName": "_epfid2d1_64",
    "SequenceVariant": "SK",
    "SeriesDescription": "ep2d_bold_rest5",
    "SeriesNumber": 14,
    "ShimSetting": [
      -243,
      -19609,
      8005,
      333,
      108,
      -597,
      328,
      -70
    ],
    "SliceThickness": 4,
    "SliceTiming": [
      1.255,
      0,
      1.335,
      0.08,
      1.4125,
      0.1575,
      1.49,
      0.235,
      1.57,
      0.315,
      1.6475,
      0.3925,
      1.725,
      0.4725,
      1.805,
      0.55,
      1.8825,
      0.6275,
      1.9625,
      0.7075,
      2.04,
      0.785,
      2.1175,
      0.8625,
      2.1975,
      0.9425,
      2.275,
      1.02,
      2.3525,
      1.1,
      2.4325,
      1.1775
    ],
    "SoftwareVersions": "syngo_MR_B17",
    "SpacingBetweenSlices": 4,
    "StationName": "MRC35177",
    "TaskName": "restmovieadaptive",
    "TotalReadoutTime": 0.0371701,
    "TxRefAmp": 343.407,
    "dataset": "ds000256",
    "dcmmeta_affine": [
      [
        -3.994271755218506,
        -0.19084277749061584,
        -0.09680544584989548,
        139.7621612548828
      ],
      [
        -0.20147255063056946,
        3.963637351989746,
        0.49898582696914673,
        -124.23081970214844
      ],
      [
        -0.07211845368146896,
        -0.5031471252441406,
        3.967574119567871,
        -17.4912166595459
      ],
      [
        0.0,
        0.0,
        0.0,
        1.0
      ]
    ],
    "dcmmeta_reorient_transform": [
      [
        0.0,
        -1.0,
        0.0,
        63.0
      ],
      [
        1.0,
        0.0,
        0.0,
        0.0
      ],
      [
        0.0,
        0.0,
        1.0,
        0.0
      ],
      [
        0.0,
        0.0,
        0.0,
        1.0
      ]
    ],
    "dcmmeta_shape": [
      64,
      64,
      32,
      164
    ],
    "dcmmeta_slice_dim": 2,
    "dcmmeta_version": 0.6,
    "global": {
      "const": {
        "AccessionNumber": ".",
        "AcquisitionMatrix": [
          64,
          0,
          0,
          64
        ],
        "AngioFlag": "N",
        "BitsAllocated": 16,
        "BitsStored": 12,
        "BodyPartExamined": "HEAD",
        "Columns": 384,
        "DeidentificationMethodCodeSequence": [
          {
            "CodeMeaning": "XNAT Edit Script",
            "CodeValue": "625500",
            "CodingSchemeDesignator": "XNAT",
            "CodingSchemeVersion": "0.1"
          }
        ],
        "EchoNumbers": 1,
        "EchoTime": 27.0,
        "EchoTrainLength": 1,
        "FlipAngle": 90.0,
        "HighBit": 11,
        "ImageOrientationPatient": [
          0.99856796650725,
          0.05036813777651,
          -0.0180296134872,
          -0.047710695677,
          0.99090936701142,
          0.12578678741044
        ],
        "ImagePositionPatient": [
          -736.28772378795,
          -791.895941697,
          -118.15407787142
        ],
        "ImageType": [
          "ORIGINAL",
          "PRIMARY",
          "M",
          "ND",
          "NORM",
          "MOSAIC"
        ],
        "ImagedNucleus": "1H",
        "ImagingFrequency": 123.255754,
        "InPlanePhaseEncodingDirection": "COL",
        "MRAcquisitionType": "2D",
        "MagneticFieldStrength": 3.0,
        "Manufacturer": "SIEMENS",
        "ManufacturerModelName": "TrioTim",
        "Modality": "MR",
        "NumberOfAverages": 1.0,
        "NumberOfPhaseEncodingSteps": 64,
        "PercentPhaseFieldOfView": 100.0,
        "PercentSampling": 100.0,
        "PerformedProcedureStepStartTime": "100414.234000",
        "PhotometricInterpretation": "MONOCHROME2",
        "PixelBandwidth": 1905.0,
        "PixelRepresentation": 0,
        "PixelSpacing": [
          4.0,
          4.0
        ],
        "PositionReferenceIndicator": "",
        "ProtocolName": "ep2d_bold_rest5",
        "RepetitionTime": 2500.0,
        "Rows": 384,
        "SAR": 0.15239677514583,
        "SamplesPerPixel": 1,
        "ScanOptions": "FS",
        "ScanningSequence": "EP",
        "SequenceName": "*epfid2d1_64",
        "SequenceVariant": "SK",
        "SeriesDescription": "ep2d_bold_rest5",
        "SeriesNumber": 14,
        "SeriesTime": "110310.562000",
        "SliceLocation": -36.229211235297,
        "SliceThickness": 4.0,
        "SmallestImagePixelValue": 0,
        "SoftwareVersions": "syngo MR B17",
        "SpacingBetweenSlices": 4.0000002891891,
        "SpecificCharacterSet": "ISO_IR 100",
        "StudyID": "1",
        "StudyTime": "100414.156000",
        "TransmitCoilName": "Body",
        "VariableFlipAngleFlag": "N",
        "WindowCenterWidthExplanation": "Algo1",
        "dBdt": 0.0
      },
      "slices": {}
    },
    "modality": "bold",
    "subject_id": "CTS200",
    "task_id": "restmovieadaptive",
    "time": {
      "samples": {
        "AcquisitionNumber": [
          1,
          2,
          3,
          4,
          5,
          6,
          7,
          8,
          9,
          10,
          11,
          12,
          13,
          14,
          15,
          16,
          17,
          18,
          19,
          20,
          21,
          22,
          23,
          24,
          25,
          26,
          27,
          28,
          29,
          30,
          31,
          32,
          33,
          34,
          35,
          36,
          37,
          38,
          39,
          40,
          41,
          42,
          43,
          44,
          45,
          46,
          47,
          48,
          49,
          50,
          51,
          52,
          53,
          54,
          55,
          56,
          57,
          58,
          59,
          60,
          61,
          62,
          63,
          64,
          65,
          66,
          67,
          68,
          69,
          70,
          71,
          72,
          73,
          74,
          75,
          76,
          77,
          78,
          79,
          80,
          81,
          82,
          83,
          84,
          85,
          86,
          87,
          88,
          89,
          90,
          91,
          92,
          93,
          94,
          95,
          96,
          97,
          98,
          99,
          100,
          101,
          102,
          103,
          104,
          105,
          106,
          107,
          108,
          109,
          110,
          111,
          112,
          113,
          114,
          115,
          116,
          117,
          118,
          119,
          120,
          121,
          122,
          123,
          124,
          125,
          126,
          127,
          128,
          129,
          130,
          131,
          132,
          133,
          134,
          135,
          136,
          137,
          138,
          139,
          140,
          141,
          142,
          143,
          144,
          145,
          146,
          147,
          148,
          149,
          150,
          151,
          152,
          153,
          154,
          155,
          156,
          157,
          158,
          159,
          160,
          161,
          162,
          163,
          164
        ],
        "AcquisitionTime": [
          "110309.397500",
          "110311.907500",
          "110314.417500",
          "110316.927500",
          "110319.437500",
          "110321.947500",
          "110324.457500",
          "110326.967500",
          "110329.477500",
          "110331.987500",
          "110334.497500",
          "110337.007500",
          "110339.517500",
          "110342.027500",
          "110344.537500",
          "110347.047500",
          "110349.560000",
          "110352.070000",
          "110354.580000",
          "110357.090000",
          "110359.600000",
          "110402.110000",
          "110404.620000",
          "110407.130000",
          "110409.640000",
          "110412.150000",
          "110414.660000",
          "110417.170000",
          "110419.680000",
          "110422.190000",
          "110424.700000",
          "110427.210000",
          "110429.720000",
          "110432.230000",
          "110434.740000",
          "110437.250000",
          "110439.760000",
          "110442.270000",
          "110444.780000",
          "110447.290000",
          "110449.800000",
          "110452.310000",
          "110454.820000",
          "110457.330000",
          "110459.840000",
          "110502.350000",
          "110504.860000",
          "110507.370000",
          "110509.880000",
          "110512.390000",
          "110514.900000",
          "110517.410000",
          "110519.920000",
          "110522.430000",
          "110524.940000",
          "110527.450000",
          "110529.960000",
          "110532.470000",
          "110534.980000",
          "110537.490000",
          "110540.000000",
          "110542.510000",
          "110545.020000",
          "110547.530000",
          "110550.040000",
          "110552.550000",
          "110555.060000",
          "110557.570000",
          "110600.080000",
          "110602.590000",
          "110605.100000",
          "110607.610000",
          "110610.120000",
          "110612.630000",
          "110615.140000",
          "110617.650000",
          "110620.160000",
          "110622.670000",
          "110625.182500",
          "110627.692500",
          "110630.202500",
          "110632.712500",
          "110635.222500",
          "110637.732500",
          "110640.242500",
          "110642.752500",
          "110645.262500",
          "110647.772500",
          "110650.282500",
          "110652.792500",
          "110655.302500",
          "110657.812500",
          "110700.322500",
          "110702.832500",
          "110705.342500",
          "110707.852500",
          "110710.362500",
          "110712.872500",
          "110715.382500",
          "110717.892500",
          "110720.402500",
          "110722.912500",
          "110725.422500",
          "110727.932500",
          "110730.442500",
          "110732.952500",
          "110735.462500",
          "110737.972500",
          "110740.482500",
          "110742.992500",
          "110745.502500",
          "110748.012500",
          "110750.522500",
          "110753.032500",
          "110755.542500",
          "110758.052500",
          "110800.562500",
          "110803.072500",
          "110805.582500",
          "110808.092500",
          "110810.602500",
          "110813.112500",
          "110815.622500",
          "110818.132500",
          "110820.642500",
          "110823.152500",
          "110825.662500",
          "110828.172500",
          "110830.682500",
          "110833.192500",
          "110835.702500",
          "110838.212500",
          "110840.722500",
          "110843.232500",
          "110845.742500",
          "110848.252500",
          "110850.762500",
          "110853.272500",
          "110855.782500",
          "110858.292500",
          "110900.805000",
          "110903.315000",
          "110905.825000",
          "110908.335000",
          "110910.845000",
          "110913.355000",
          "110915.865000",
          "110918.375000",
          "110920.885000",
          "110923.395000",
          "110925.905000",
          "110928.415000",
          "110930.925000",
          "110933.435000",
          "110935.945000",
          "110938.455000",
          "110940.965000",
          "110943.475000",
          "110945.985000",
          "110948.495000",
          "110951.005000",
          "110953.515000",
          "110956.025000",
          "110958.535000"
        ],
        "ContentTime": [
          "110310.562000",
          "110313.062000",
          "110315.562000",
          "110318.062000",
          "110320.562000",
          "110323.062000",
          "110325.562000",
          "110328.062000",
          "110330.562000",
          "110333.062000",
          "110335.562000",
          "110338.062000",
          "110340.562000",
          "110343.062000",
          "110345.562000",
          "110348.062000",
          "110350.562000",
          "110353.062000",
          "110355.562000",
          "110358.062000",
          "110400.562000",
          "110403.062000",
          "110405.562000",
          "110408.062000",
          "110410.562000",
          "110413.062000",
          "110415.562000",
          "110418.062000",
          "110420.562000",
          "110423.062000",
          "110425.562000",
          "110428.062000",
          "110430.562000",
          "110433.062000",
          "110435.562000",
          "110438.062000",
          "110440.562000",
          "110443.062000",
          "110445.562000",
          "110448.062000",
          "110450.562000",
          "110453.062000",
          "110455.562000",
          "110458.062000",
          "110500.562000",
          "110503.062000",
          "110505.562000",
          "110508.062000",
          "110510.562000",
          "110513.062000",
          "110515.562000",
          "110518.062000",
          "110520.562000",
          "110523.062000",
          "110525.562000",
          "110528.062000",
          "110530.562000",
          "110533.062000",
          "110535.562000",
          "110538.062000",
          "110540.562000",
          "110543.062000",
          "110545.562000",
          "110548.062000",
          "110550.562000",
          "110553.062000",
          "110555.562000",
          "110558.062000",
          "110600.562000",
          "110603.062000",
          "110605.562000",
          "110608.562000",
          "110610.562000",
          "110613.562000",
          "110615.562000",
          "110618.062000",
          "110620.562000",
          "110623.062000",
          "110625.562000",
          "110628.062000",
          "110630.562000",
          "110633.062000",
          "110635.562000",
          "110638.062000",
          "110640.562000",
          "110643.062000",
          "110645.562000",
          "110648.062000",
          "110650.562000",
          "110653.062000",
          "110655.562000",
          "110658.062000",
          "110700.562000",
          "110703.062000",
          "110705.562000",
          "110708.062000",
          "110710.562000",
          "110713.062000",
          "110715.562000",
          "110718.062000",
          "110720.562000",
          "110723.062000",
          "110725.562000",
          "110728.062000",
          "110730.562000",
          "110733.062000",
          "110735.562000",
          "110738.062000",
          "110740.562000",
          "110743.062000",
          "110745.562000",
          "110748.062000",
          "110750.562000",
          "110753.062000",
          "110755.562000",
          "110758.062000",
          "110800.562000",
          "110803.062000",
          "110805.562000",
          "110808.062000",
          "110810.562000",
          "110813.062000",
          "110815.562000",
          "110818.062000",
          "110820.562000",
          "110823.062000",
          "110825.562000",
          "110828.062000",
          "110830.562000",
          "110833.062000",
          "110835.562000",
          "110838.062000",
          "110840.562000",
          "110843.062000",
          "110845.562000",
          "110848.062000",
          "110850.562000",
          "110853.062000",
          "110855.562000",
          "110858.062000",
          "110900.562000",
          "110903.062000",
          "110905.562000",
          "110908.062000",
          "110910.562000",
          "110913.062000",
          "110915.562000",
          "110918.062000",
          "110920.562000",
          "110923.062000",
          "110925.562000",
          "110928.062000",
          "110930.562000",
          "110933.062000",
          "110935.562000",
          "110938.062000",
          "110940.562000",
          "110943.062000",
          "110945.562000",
          "110948.062000",
          "110950.562000",
          "110953.062000",
          "110955.562000",
          "110958.031000"
        ],
        "InstanceCreationTime": [
          "110310.562000",
          "110313.062000",
          "110315.562000",
          "110318.062000",
          "110320.562000",
          "110323.062000",
          "110325.562000",
          "110328.062000",
          "110330.562000",
          "110333.062000",
          "110335.562000",
          "110338.062000",
          "110340.562000",
          "110343.062000",
          "110345.562000",
          "110348.062000",
          "110350.562000",
          "110353.062000",
          "110355.562000",
          "110358.062000",
          "110400.562000",
          "110403.062000",
          "110405.562000",
          "110408.062000",
          "110410.562000",
          "110413.062000",
          "110415.562000",
          "110418.062000",
          "110420.562000",
          "110423.062000",
          "110425.562000",
          "110428.062000",
          "110430.562000",
          "110433.062000",
          "110435.562000",
          "110438.062000",
          "110440.562000",
          "110443.062000",
          "110445.562000",
          "110448.062000",
          "110450.562000",
          "110453.062000",
          "110455.562000",
          "110458.062000",
          "110500.562000",
          "110503.062000",
          "110505.562000",
          "110508.062000",
          "110510.562000",
          "110513.062000",
          "110515.562000",
          "110518.062000",
          "110520.562000",
          "110523.062000",
          "110525.562000",
          "110528.062000",
          "110530.562000",
          "110533.062000",
          "110535.562000",
          "110538.062000",
          "110540.562000",
          "110543.062000",
          "110545.562000",
          "110548.062000",
          "110550.562000",
          "110553.062000",
          "110555.562000",
          "110558.062000",
          "110600.562000",
          "110603.062000",
          "110605.562000",
          "110608.562000",
          "110610.562000",
          "110613.562000",
          "110615.562000",
          "110618.062000",
          "110620.562000",
          "110623.062000",
          "110625.562000",
          "110628.062000",
          "110630.562000",
          "110633.062000",
          "110635.562000",
          "110638.062000",
          "110640.562000",
          "110643.062000",
          "110645.562000",
          "110648.062000",
          "110650.562000",
          "110653.062000",
          "110655.562000",
          "110658.062000",
          "110700.562000",
          "110703.062000",
          "110705.562000",
          "110708.062000",
          "110710.562000",
          "110713.062000",
          "110715.562000",
          "110718.062000",
          "110720.562000",
          "110723.062000",
          "110725.562000",
          "110728.062000",
          "110730.562000",
          "110733.062000",
          "110735.562000",
          "110738.062000",
          "110740.562000",
          "110743.062000",
          "110745.562000",
          "110748.062000",
          "110750.562000",
          "110753.062000",
          "110755.562000",
          "110758.062000",
          "110800.562000",
          "110803.062000",
          "110805.562000",
          "110808.062000",
          "110810.562000",
          "110813.062000",
          "110815.562000",
          "110818.062000",
          "110820.562000",
          "110823.062000",
          "110825.562000",
          "110828.062000",
          "110830.562000",
          "110833.062000",
          "110835.562000",
          "110838.062000",
          "110840.562000",
          "110843.062000",
          "110845.562000",
          "110848.062000",
          "110850.562000",
          "110853.062000",
          "110855.562000",
          "110858.062000",
          "110900.562000",
          "110903.062000",
          "110905.562000",
          "110908.062000",
          "110910.562000",
          "110913.062000",
          "110915.562000",
          "110918.062000",
          "110920.562000",
          "110923.062000",
          "110925.562000",
          "110928.062000",
          "110930.562000",
          "110933.062000",
          "110935.562000",
          "110938.062000",
          "110940.562000",
          "110943.062000",
          "110945.562000",
          "110948.062000",
          "110950.562000",
          "110953.062000",
          "110955.562000",
          "110958.031000"
        ],
        "InstanceNumber": [
          1,
          2,
          3,
          4,
          5,
          6,
          7,
          8,
          9,
          10,
          11,
          12,
          13,
          14,
          15,
          16,
          17,
          18,
          19,
          20,
          21,
          22,
          23,
          24,
          25,
          26,
          27,
          28,
          29,
          30,
          31,
          32,
          33,
          34,
          35,
          36,
          37,
          38,
          39,
          40,
          41,
          42,
          43,
          44,
          45,
          46,
          47,
          48,
          49,
          50,
          51,
          52,
          53,
          54,
          55,
          56,
          57,
          58,
          59,
          60,
          61,
          62,
          63,
          64,
          65,
          66,
          67,
          68,
          69,
          70,
          71,
          72,
          73,
          74,
          75,
          76,
          77,
          78,
          79,
          80,
          81,
          82,
          83,
          84,
          85,
          86,
          87,
          88,
          89,
          90,
          91,
          92,
          93,
          94,
          95,
          96,
          97,
          98,
          99,
          100,
          101,
          102,
          103,
          104,
          105,
          106,
          107,
          108,
          109,
          110,
          111,
          112,
          113,
          114,
          115,
          116,
          117,
          118,
          119,
          120,
          121,
          122,
          123,
          124,
          125,
          126,
          127,
          128,
          129,
          130,
          131,
          132,
          133,
          134,
          135,
          136,
          137,
          138,
          139,
          140,
          141,
          142,
          143,
          144,
          145,
          146,
          147,
          148,
          149,
          150,
          151,
          152,
          153,
          154,
          155,
          156,
          157,
          158,
          159,
          160,
          161,
          162,
          163,
          164
        ],
        "LargestImagePixelValue": [
          1318,
          1290,
          1288,
          1267,
          1287,
          1263,
          1237,
          1290,
          1263,
          1270,
          1305,
          1299,
          1273,
          1307,
          1283,
          1301,
          1291,
          1264,
          1294,
          1291,
          1292,
          1306,
          1280,
          1313,
          1304,
          1280,
          1308,
          1281,
          1267,
          1285,
          1281,
          1267,
          1278,
          1271,
          1276,
          1269,
          1276,
          1273,
          1283,
          1306,
          1249,
          1245,
          1310,
          1280,
          1297,
          1295,
          1280,
          1296,
          1285,
          1285,
          1287,
          1296,
          1270,
          1283,
          1257,
          1261,
          1270,
          1273,
          1264,
          1280,
          1260,
          1243,
          1294,
          1274,
          1300,
          1297,
          1295,
          1292,
          1291,
          1291,
          1303,
          1280,
          1288,
          1295,
          1276,
          1283,
          1276,
          1297,
          1295,
          1261,
          1311,
          1294,
          1277,
          1266,
          1297,
          1299,
          1298,
          1262,
          1295,
          1315,
          1261,
          1273,
          1294,
          1260,
          1282,
          1297,
          1285,
          1266,
          1297,
          1293,
          1270,
          1288,
          1298,
          1267,
          1289,
          1296,
          1271,
          1277,
          1300,
          1276,
          1256,
          1260,
          1252,
          1281,
          1360,
          1280,
          1258,
          1278,
          1271,
          1304,
          1320,
          1275,
          1270,
          1280,
          1273,
          1279,
          1306,
          1281,
          1288,
          1287,
          1297,
          1299,
          1279,
          1310,
          1286,
          1322,
          1298,
          1310,
          1289,
          1265,
          1285,
          1270,
          1285,
          1277,
          1250,
          1285,
          1298,
          1289,
          1282,
          1301,
          1289,
          1291,
          1304,
          1288,
          1258,
          1294,
          1297,
          1288,
          1298,
          1289,
          1302,
          1294,
          1301,
          1298
        ],
        "WindowCenter": [
          578.0,
          577.0,
          577.0,
          578.0,
          579.0,
          578.0,
          579.0,
          578.0,
          579.0,
          579.0,
          578.0,
          578.0,
          578.0,
          577.0,
          576.0,
          576.0,
          577.0,
          577.0,
          577.0,
          577.0,
          578.0,
          578.0,
          576.0,
          578.0,
          578.0,
          578.0,
          576.0,
          577.0,
          577.0,
          577.0,
          576.0,
          576.0,
          577.0,
          577.0,
          578.0,
          577.0,
          577.0,
          577.0,
          577.0,
          577.0,
          577.0,
          576.0,
          577.0,
          575.0,
          576.0,
          576.0,
          577.0,
          576.0,
          577.0,
          577.0,
          577.0,
          578.0,
          578.0,
          577.0,
          577.0,
          576.0,
          574.0,
          575.0,
          576.0,
          576.0,
          576.0,
          576.0,
          577.0,
          577.0,
          576.0,
          578.0,
          577.0,
          576.0,
          576.0,
          576.0,
          576.0,
          575.0,
          575.0,
          576.0,
          575.0,
          576.0,
          576.0,
          577.0,
          575.0,
          576.0,
          577.0,
          576.0,
          577.0,
          576.0,
          577.0,
          577.0,
          576.0,
          574.0,
          575.0,
          576.0,
          576.0,
          576.0,
          577.0,
          577.0,
          577.0,
          577.0,
          575.0,
          576.0,
          577.0,
          576.0,
          577.0,
          575.0,
          577.0,
          576.0,
          576.0,
          576.0,
          577.0,
          576.0,
          577.0,
          577.0,
          576.0,
          576.0,
          578.0,
          577.0,
          576.0,
          575.0,
          575.0,
          576.0,
          575.0,
          573.0,
          576.0,
          575.0,
          575.0,
          574.0,
          575.0,
          575.0,
          576.0,
          576.0,
          576.0,
          575.0,
          576.0,
          576.0,
          576.0,
          576.0,
          576.0,
          578.0,
          577.0,
          577.0,
          576.0,
          575.0,
          575.0,
          575.0,
          575.0,
          574.0,
          575.0,
          575.0,
          575.0,
          575.0,
          576.0,
          574.0,
