{
  "aor": 0.007944999999999999,
  "aqi": 0.024074963902439024,
  "bids_meta": {
    "AcquisitionMatrixPE": 64,
    "AcquisitionNumber": 1,
    "AcquisitionTime": "15:56:6.100000",
    "BandwidthPerPixelPhaseEncode": 26.483,
    "BaseResolution": 64,
    "BodyPartExamined": "HEAD",
    "CogAtlasID": "TODO",
    "ConversionSoftware": "dcm2niix",
    "ConversionSoftwareVersion": "v1.0.20171017 GCC6.3.0",
    "DerivedVendorReportedEchoSpacing": 0.000590001,
    "DeviceSerialNumber": "35177",
    "DwellTime": 4.1e-06,
    "EchoTime": 0.027,
    "EffectiveEchoSpacing": 0.000590001,
    "FlipAngle": 90,
    "ImageOrientationPatientDICOM": [
      0.991706,
      -0.00747498,
      0.128307,
      0.00342175,
      0.999489,
      0.0317816
    ],
    "ImageType": [
      "ORIGINAL",
      "PRIMARY",
      "M",
      "ND",
      "NORM",
      "MOSAIC"
    ],
    "InPlanePhaseEncodingDirectionDICOM": "COL",
    "InstitutionAddress": "Scott_Ave._4525_St._Louis_MO_US_63110",
    "InstitutionName": "Washington_University",
    "InstitutionalDepartmentName": "Department",
    "MRAcquisitionType": "2D",
    "MagneticFieldStrength": 3,
    "Manufacturer": "Siemens",
    "ManufacturersModelName": "TrioTim",
    "Modality": "MR",
    "PartialFourier": 1,
    "PatientPosition": "HFS",
    "PercentPhaseFOV": 100,
    "PhaseEncodingDirection": "j-",
    "PhaseEncodingSteps": 64,
    "PhaseResolution": 1,
    "PixelBandwidth": 1905,
    "ProcedureStepDescription": "head_GREENE",
    "ProtocolName": "ep2d_bold_nonad_rest",
    "PulseSequenceDetails": "%SiemensSeq%_ep2d_bold",
    "ReceiveCoilName": "HeadMatrix",
    "ReconMatrixPE": 64,
    "RepetitionTime": 2.5,
    "SAR": 0.15654,
    "ScanOptions": "FS",
    "ScanningSequence": "EP",
    "SequenceName": "_epfid2d1_64",
    "SequenceVariant": "SK",
    "SeriesDescription": "ep2d_bold_nonad_rest",
    "SeriesNumber": 12,
    "ShimSetting": [
      -190,
      -19653,
      7997,
      163,
      -45,
      -693,
      25,
      -28
    ],
    "SliceThickness": 4,
    "SliceTiming": [
      1.255,
      0,
      1.335,
      0.08,
      1.4125,
      0.1575,
      1.49,
      0.235,
      1.57,
      0.315,
      1.6475,
      0.3925,
      1.7275,
      0.4725,
      1.805,
      0.55,
      1.8825,
      0.6275,
      1.9625,
      0.7075,
      2.04,
      0.785,
      2.1175,
      0.8625,
      2.1975,
      0.9425,
      2.275,
      1.02,
      2.3525,
      1.1,
      2.4325,
      1.1775
    ],
    "SoftwareVersions": "syngo_MR_B17",
    "SpacingBetweenSlices": 4,
    "StationName": "MRC35177",
    "TaskName": "restfixationfixed",
    "TotalReadoutTime": 0.0371701,
    "TxRefAmp": 355.816,
    "dataset": "ds000256",
    "dcmmeta_affine": [
      [
        -3.966825485229492,
        0.01368700247257948,
        0.5139144659042358,
        117.26039123535156
      ],
      [
        0.029899917542934418,
        3.9979560375213623,
        0.12431589514017105,
        -133.66952514648438
      ],
      [
        0.5132263898849487,
        -0.12712635099887848,
        3.9649012088775635,
        -26.1535701751709
      ],
      [
        0.0,
        0.0,
        0.0,
        1.0
      ]
    ],
    "dcmmeta_reorient_transform": [
      [
        0.0,
        -1.0,
        0.0,
        63.0
      ],
      [
        1.0,
        0.0,
        0.0,
        0.0
      ],
      [
        0.0,
        0.0,
        1.0,
        0.0
      ],
      [
        0.0,
        0.0,
        0.0,
        1.0
      ]
    ],
    "dcmmeta_shape": [
      64,
      64,
      32,
      164
    ],
    "dcmmeta_slice_dim": 2,
    "dcmmeta_version": 0.6,
    "global": {
      "const": {
        "AccessionNumber": ".",
        "AcquisitionMatrix": [
          64,
          0,
          0,
          64
        ],
        "AngioFlag": "N",
        "BitsAllocated": 16,
        "BitsStored": 12,
        "BodyPartExamined": "HEAD",
        "Columns": 384,
        "DeidentificationMethodCodeSequence": [
          {
            "CodeMeaning": "XNAT Edit Script",
            "CodeValue": "625500",
            "CodingSchemeDesignator": "XNAT",
            "CodingSchemeVersion": "0.1"
          }
        ],
        "EchoNumbers": 1,
        "EchoTime": 27.0,
        "EchoTrainLength": 1,
        "FlipAngle": 90.0,
        "HighBit": 11,
        "ImageOrientationPatient": [
          0.99170637892917,
          -0.0074749792442,
          0.12830659638732,
          0.00342175066256,
          0.99948898056264,
          0.0317815883219
        ],
        "ImagePositionPatient": [
          -755.00467179885,
          -753.09065762222,
          -136.61896857061
        ],
        "ImageType": [
          "ORIGINAL",
          "PRIMARY",
          "M",
          "ND",
          "NORM",
          "MOSAIC"
        ],
        "ImagedNucleus": "1H",
        "ImagingFrequency": 123.256076,
        "InPlanePhaseEncodingDirection": "COL",
        "MRAcquisitionType": "2D",
        "MagneticFieldStrength": 3.0,
        "Manufacturer": "SIEMENS",
        "ManufacturerModelName": "TrioTim",
        "Modality": "MR",
        "NumberOfAverages": 1.0,
        "NumberOfPhaseEncodingSteps": 64,
        "PercentPhaseFieldOfView": 100.0,
        "PercentSampling": 100.0,
        "PerformedProcedureStepStartTime": "150845.312000",
        "PhotometricInterpretation": "MONOCHROME2",
        "PixelBandwidth": 1905.0,
        "PixelRepresentation": 0,
        "PixelSpacing": [
          4.0,
          4.0
        ],
        "PositionReferenceIndicator": "",
        "ProtocolName": "ep2d_bold_nonad_rest",
        "RepetitionTime": 2500.0,
        "Rows": 384,
        "SAR": 0.15653991715137,
        "SamplesPerPixel": 1,
        "ScanOptions": "FS",
        "ScanningSequence": "EP",
        "SequenceName": "*epfid2d1_64",
        "SequenceVariant": "SK",
        "SeriesDescription": "ep2d_bold_nonad_rest",
        "SeriesNumber": 12,
        "SeriesTime": "155607.906000",
        "SliceLocation": -15.012938425369,
        "SliceThickness": 4.0,
        "SmallestImagePixelValue": 0,
        "SoftwareVersions": "syngo MR B17",
        "SpacingBetweenSlices": 4.0000004236853,
        "SpecificCharacterSet": "ISO_IR 100",
        "StudyID": "1",
        "StudyTime": "150845.265000",
        "TransmitCoilName": "Body",
        "VariableFlipAngleFlag": "N",
        "WindowCenterWidthExplanation": "Algo1",
        "dBdt": 0.0
      },
      "slices": {}
    },
    "modality": "bold",
    "subject_id": "CTS235",
    "task_id": "restfixationfixed",
    "time": {
      "samples": {
        "AcquisitionNumber": [
          1,
          2,
          3,
          4,
          5,
          6,
          7,
          8,
          9,
          10,
          11,
          12,
          13,
          14,
          15,
          16,
          17,
          18,
          19,
          20,
          21,
          22,
          23,
          24,
          25,
          26,
          27,
          28,
          29,
          30,
          31,
          32,
          33,
          34,
          35,
          36,
          37,
          38,
          39,
          40,
          41,
          42,
          43,
          44,
          45,
          46,
          47,
          48,
          49,
          50,
          51,
          52,
          53,
          54,
          55,
          56,
          57,
          58,
          59,
          60,
          61,
          62,
          63,
          64,
          65,
          66,
          67,
          68,
          69,
          70,
          71,
          72,
          73,
          74,
          75,
          76,
          77,
          78,
          79,
          80,
          81,
          82,
          83,
          84,
          85,
          86,
          87,
          88,
          89,
          90,
          91,
          92,
          93,
          94,
          95,
          96,
          97,
          98,
          99,
          100,
          101,
          102,
          103,
          104,
          105,
          106,
          107,
          108,
          109,
          110,
          111,
          112,
          113,
          114,
          115,
          116,
          117,
          118,
          119,
          120,
          121,
          122,
          123,
          124,
          125,
          126,
          127,
          128,
          129,
          130,
          131,
          132,
          133,
          134,
          135,
          136,
          137,
          138,
          139,
          140,
          141,
          142,
          143,
          144,
          145,
          146,
          147,
          148,
          149,
          150,
          151,
          152,
          153,
          154,
          155,
          156,
          157,
          158,
          159,
          160,
          161,
          162,
          163,
          164
        ],
        "AcquisitionTime": [
          "155606.100000",
          "155608.610000",
          "155611.120000",
          "155613.630000",
          "155616.140000",
          "155618.650000",
          "155621.160000",
          "155623.670000",
          "155626.180000",
          "155628.690000",
          "155631.200000",
          "155633.710000",
          "155636.220000",
          "155638.732500",
          "155641.242500",
          "155643.752500",
          "155646.262500",
          "155648.772500",
          "155651.282500",
          "155653.792500",
          "155656.302500",
          "155658.812500",
          "155701.322500",
          "155703.832500",
          "155706.342500",
          "155708.852500",
          "155711.362500",
          "155713.872500",
          "155716.382500",
          "155718.892500",
          "155721.402500",
          "155723.912500",
          "155726.422500",
          "155728.932500",
          "155731.442500",
          "155733.952500",
          "155736.462500",
          "155738.972500",
          "155741.482500",
          "155743.992500",
          "155746.502500",
          "155749.012500",
          "155751.522500",
          "155754.032500",
          "155756.542500",
          "155759.052500",
          "155801.562500",
          "155804.072500",
          "155806.582500",
          "155809.092500",
          "155811.602500",
          "155814.112500",
          "155816.622500",
          "155819.132500",
          "155821.642500",
          "155824.152500",
          "155826.662500",
          "155829.172500",
          "155831.682500",
          "155834.192500",
          "155836.702500",
          "155839.212500",
          "155841.722500",
          "155844.232500",
          "155846.742500",
          "155849.252500",
          "155851.762500",
          "155854.272500",
          "155856.782500",
          "155859.292500",
          "155901.802500",
          "155904.312500",
          "155906.822500",
          "155909.332500",
          "155911.842500",
          "155914.355000",
          "155916.865000",
          "155919.375000",
          "155921.885000",
          "155924.395000",
          "155926.905000",
          "155929.415000",
          "155931.925000",
          "155934.435000",
          "155936.945000",
          "155939.455000",
          "155941.965000",
          "155944.475000",
          "155946.985000",
          "155949.495000",
          "155952.005000",
          "155954.515000",
          "155957.025000",
          "155959.535000",
          "160002.045000",
          "160004.555000",
          "160007.065000",
          "160009.575000",
          "160012.085000",
          "160014.595000",
          "160017.105000",
          "160019.615000",
          "160022.125000",
          "160024.635000",
          "160027.145000",
          "160029.655000",
          "160032.165000",
          "160034.675000",
          "160037.185000",
          "160039.695000",
          "160042.205000",
          "160044.715000",
          "160047.225000",
          "160049.735000",
          "160052.245000",
          "160054.755000",
          "160057.265000",
          "160059.775000",
          "160102.285000",
          "160104.795000",
          "160107.305000",
          "160109.815000",
          "160112.325000",
          "160114.835000",
          "160117.345000",
          "160119.855000",
          "160122.365000",
          "160124.875000",
          "160127.385000",
          "160129.895000",
          "160132.405000",
          "160134.915000",
          "160137.425000",
          "160139.935000",
          "160142.445000",
          "160144.955000",
          "160147.465000",
          "160149.975000",
          "160152.487500",
          "160154.997500",
          "160157.507500",
          "160200.017500",
          "160202.527500",
          "160205.037500",
          "160207.547500",
          "160210.057500",
          "160212.567500",
          "160215.077500",
          "160217.587500",
          "160220.097500",
          "160222.607500",
          "160225.117500",
          "160227.627500",
          "160230.137500",
          "160232.647500",
          "160235.157500",
          "160237.667500",
          "160240.177500",
          "160242.687500",
          "160245.197500",
          "160247.707500",
          "160250.217500",
          "160252.727500",
          "160255.237500"
        ],
        "ContentTime": [
          "155607.921000",
          "155610.406000",
          "155612.906000",
          "155615.406000",
          "155617.906000",
          "155620.406000",
          "155622.906000",
          "155625.406000",
          "155627.906000",
          "155630.406000",
          "155632.906000",
          "155635.406000",
          "155637.906000",
          "155640.406000",
          "155642.906000",
          "155645.406000",
          "155647.906000",
          "155650.406000",
          "155652.906000",
          "155655.406000",
          "155657.906000",
          "155700.406000",
          "155702.906000",
          "155705.406000",
          "155707.906000",
          "155710.406000",
          "155712.906000",
          "155715.406000",
          "155717.906000",
          "155720.406000",
          "155722.906000",
          "155725.406000",
          "155727.906000",
          "155730.406000",
          "155732.906000",
          "155735.406000",
          "155737.906000",
          "155740.406000",
          "155742.906000",
          "155745.406000",
          "155747.906000",
          "155750.406000",
          "155752.906000",
          "155755.406000",
          "155757.906000",
          "155800.406000",
          "155802.906000",
          "155805.406000",
          "155807.906000",
          "155810.406000",
          "155812.906000",
          "155815.406000",
          "155817.906000",
          "155820.406000",
          "155822.906000",
          "155825.406000",
          "155827.906000",
          "155830.406000",
          "155832.906000",
          "155835.406000",
          "155837.906000",
          "155840.406000",
          "155842.906000",
          "155845.406000",
          "155847.906000",
          "155850.406000",
          "155852.906000",
          "155855.406000",
          "155857.906000",
          "155900.406000",
          "155902.906000",
          "155905.406000",
          "155907.906000",
          "155910.406000",
          "155912.906000",
          "155915.406000",
          "155917.906000",
          "155920.406000",
          "155922.906000",
          "155925.406000",
          "155927.906000",
          "155930.406000",
          "155932.906000",
          "155935.406000",
          "155937.906000",
          "155940.406000",
          "155942.906000",
          "155945.406000",
          "155947.906000",
          "155950.406000",
          "155952.906000",
          "155955.406000",
          "155957.906000",
          "160000.406000",
          "160002.906000",
          "160005.406000",
          "160007.906000",
          "160010.406000",
          "160012.906000",
          "160015.406000",
          "160017.906000",
          "160020.406000",
          "160022.906000",
          "160025.406000",
          "160027.906000",
          "160030.406000",
          "160032.906000",
          "160035.406000",
          "160037.906000",
          "160040.406000",
          "160042.906000",
          "160045.406000",
          "160047.906000",
          "160050.406000",
          "160052.906000",
          "160055.406000",
          "160057.906000",
          "160100.406000",
          "160102.906000",
          "160105.406000",
          "160107.906000",
          "160110.406000",
          "160112.906000",
          "160115.406000",
          "160117.906000",
          "160120.406000",
          "160122.906000",
          "160125.406000",
          "160127.906000",
          "160130.406000",
          "160132.906000",
          "160135.406000",
          "160137.906000",
          "160140.406000",
          "160142.906000",
          "160145.406000",
          "160147.906000",
          "160150.406000",
          "160152.906000",
          "160155.406000",
          "160157.906000",
          "160200.406000",
          "160202.906000",
          "160205.406000",
          "160207.906000",
          "160210.406000",
          "160212.906000",
          "160215.406000",
          "160217.906000",
          "160220.406000",
          "160222.906000",
          "160225.406000",
          "160227.906000",
          "160230.406000",
          "160232.906000",
          "160235.406000",
          "160237.906000",
          "160240.406000",
          "160242.906000",
          "160245.406000",
          "160247.906000",
          "160250.406000",
          "160252.906000",
          "160255.125000"
        ],
        "InstanceCreationTime": [
          "155607.921000",
          "155610.406000",
          "155612.906000",
          "155615.406000",
          "155617.906000",
          "155620.406000",
          "155622.906000",
          "155625.406000",
          "155627.906000",
          "155630.406000",
          "155632.906000",
          "155635.406000",
          "155637.906000",
          "155640.406000",
          "155642.906000",
          "155645.406000",
          "155647.906000",
          "155650.406000",
          "155652.906000",
          "155655.406000",
          "155657.906000",
          "155700.406000",
          "155702.906000",
          "155705.406000",
          "155707.906000",
          "155710.406000",
          "155712.906000",
          "155715.406000",
          "155717.906000",
          "155720.406000",
          "155722.906000",
          "155725.406000",
          "155727.906000",
          "155730.406000",
          "155732.906000",
          "155735.406000",
          "155737.906000",
          "155740.406000",
          "155742.906000",
          "155745.406000",
          "155747.906000",
          "155750.406000",
          "155752.906000",
          "155755.406000",
          "155757.906000",
          "155800.406000",
          "155802.906000",
          "155805.406000",
          "155807.906000",
          "155810.406000",
          "155812.906000",
          "155815.406000",
          "155817.906000",
          "155820.406000",
          "155822.906000",
          "155825.406000",
          "155827.906000",
          "155830.406000",
          "155832.906000",
          "155835.406000",
          "155837.906000",
          "155840.406000",
          "155842.906000",
          "155845.406000",
          "155847.906000",
          "155850.406000",
          "155852.906000",
          "155855.406000",
          "155857.906000",
          "155900.406000",
          "155902.906000",
          "155905.406000",
          "155907.906000",
          "155910.406000",
          "155912.906000",
          "155915.406000",
          "155917.906000",
          "155920.406000",
          "155922.906000",
          "155925.406000",
          "155927.906000",
          "155930.406000",
          "155932.906000",
          "155935.406000",
          "155937.906000",
          "155940.406000",
          "155942.906000",
          "155945.406000",
          "155947.906000",
          "155950.406000",
          "155952.906000",
          "155955.406000",
          "155957.906000",
          "160000.406000",
          "160002.906000",
          "160005.406000",
          "160007.906000",
          "160010.406000",
          "160012.906000",
          "160015.406000",
          "160017.906000",
          "160020.406000",
          "160022.906000",
          "160025.406000",
          "160027.906000",
          "160030.406000",
          "160032.906000",
          "160035.406000",
          "160037.906000",
          "160040.406000",
          "160042.906000",
          "160045.406000",
          "160047.906000",
          "160050.406000",
          "160052.906000",
          "160055.406000",
          "160057.906000",
          "160100.406000",
          "160102.906000",
          "160105.406000",
          "160107.906000",
          "160110.406000",
          "160112.906000",
          "160115.406000",
          "160117.906000",
          "160120.406000",
          "160122.906000",
          "160125.406000",
          "160127.906000",
          "160130.406000",
          "160132.906000",
          "160135.406000",
          "160137.906000",
          "160140.406000",
          "160142.906000",
          "160145.406000",
          "160147.906000",
          "160150.406000",
          "160152.906000",
          "160155.406000",
          "160157.906000",
          "160200.406000",
          "160202.906000",
          "160205.406000",
          "160207.906000",
          "160210.406000",
          "160212.906000",
          "160215.406000",
          "160217.906000",
          "160220.406000",
          "160222.906000",
          "160225.406000",
          "160227.906000",
          "160230.406000",
          "160232.906000",
          "160235.406000",
          "160237.906000",
          "160240.406000",
          "160242.906000",
          "160245.406000",
          "160247.906000",
          "160250.406000",
          "160252.906000",
          "160255.125000"
        ],
        "InstanceNumber": [
          1,
          2,
          3,
          4,
          5,
          6,
          7,
          8,
          9,
          10,
          11,
          12,
          13,
          14,
          15,
          16,
          17,
          18,
          19,
          20,
          21,
          22,
          23,
          24,
          25,
          26,
          27,
          28,
          29,
          30,
          31,
          32,
          33,
          34,
          35,
          36,
          37,
          38,
          39,
          40,
          41,
          42,
          43,
          44,
          45,
          46,
          47,
          48,
          49,
          50,
          51,
          52,
          53,
          54,
          55,
          56,
          57,
          58,
          59,
          60,
          61,
          62,
          63,
          64,
          65,
          66,
          67,
          68,
          69,
          70,
          71,
          72,
          73,
          74,
          75,
          76,
          77,
          78,
          79,
          80,
          81,
          82,
          83,
          84,
          85,
          86,
          87,
          88,
          89,
          90,
          91,
          92,
          93,
          94,
          95,
          96,
          97,
          98,
          99,
          100,
          101,
          102,
          103,
          104,
          105,
          106,
          107,
          108,
          109,
          110,
          111,
          112,
          113,
          114,
          115,
          116,
          117,
          118,
          119,
          120,
          121,
          122,
          123,
          124,
          125,
          126,
          127,
          128,
          129,
          130,
          131,
          132,
          133,
          134,
          135,
          136,
          137,
          138,
          139,
          140,
          141,
          142,
          143,
          144,
          145,
          146,
          147,
          148,
          149,
          150,
          151,
          152,
          153,
          154,
          155,
          156,
          157,
          158,
          159,
          160,
          161,
          162,
          163,
          164
        ],
        "LargestImagePixelValue": [
          1257,
          1258,
          1262,
          1265,
          1263,
          1242,
          1254,
          1261,
          1261,
          1253,
          1251,
          1253,
          1258,
          1258,
          1247,
          1251,
          1257,
          1255,
          1253,
          1247,
          1256,
          1265,
          1260,
          1226,
          1338,
          1312,
          1482,
          1220,
          1239,
          1295,
          1251,
          1254,
          1252,
          1254,
          1265,
          1247,
          1500,
          1273,
          1262,
          1257,
          1272,
          1261,
          1401,
          1298,
          1279,
          1274,
          1254,
          1305,
          1469,
          1274,
          1266,
          1255,
          1321,
          1268,
          1255,
          1253,
          1256,
          1243,
          1247,
          1258,
          1301,
          1283,
          1496,
          1502,
          1326,
          1297,
          1220,
          1276,
          1375,
          1236,
          1231,
          1285,
          1320,
          1276,
          1257,
          1261,
          1385,
          1264,
          1267,
          1265,
          1361,
          1283,
          1263,
          1288,
          1273,
          1298,
          1281,
          1322,
          1276,
          1528,
          1302,
          1344,
          1263,
          1271,
          1451,
          1523,
          1285,
          1285,
          1289,
          1288,
          1323,
          1359,
          1675,
          1307,
          1370,
          1376,
          1430,
          1360,
          1730,
          1441,
          1705,
          1489,
          1279,
          1300,
          1290,
          1566,
          1609,
          1316,
          1300,
          1525,
          1318,
          1640,
          1523,
          1317,
          1301,
          1746,
          1647,
          1394,
          1379,
          1346,
          1393,
          1322,
          1320,
          1404,
          1309,
          1287,
          1568,
          1298,
          1616,
          1296,
          1294,
          1292,
          1305,
          1334,
          1310,
          1610,
          1533,
          1511,
          1312,
          1303,
          1316,
          1519,
          1313,
          1315,
          1301,
          1536,
          1411,
          1585,
          1343,
          1284,
          1289,
          1288,
          1378,
          1321
        ],
        "WindowCenter": [
          610.0,
          610.0,
          610.0,
          610.0,
          609.0,
          610.0,
          610.0,
          611.0,
          610.0,
          609.0,
          610.0,
          610.0,
          610.0,
          610.0,
          610.0,
          610.0,
          610.0,
          612.0,
          610.0,
          611.0,
          610.0,
          610.0,
          606.0,
          602.0,
          615.0,
          609.0,
          608.0,
          606.0,
          610.0,
          610.0,
          609.0,
          609.0,
          609.0,
          610.0,
          611.0,
          613.0,
          613.0,
          613.0,
          611.0,
          612.0,
          614.0,
          614.0,
          614.0,
          612.0,
          613.0,
          611.0,
          610.0,
          610.0,
          611.0,
          609.0,
          609.0,
          609.0,
          611.0,
          611.0,
          610.0,
          610.0,
          611.0,
          611.0,
          610.0,
          609.0,
          607.0,
          606.0,
          609.0,
          606.0,
          605.0,
          605.0,
          607.0,
          608.0,
          610.0,
          609.0,
          608.0,
          609.0,
          604.0,
          612.0,
          611.0,
          613.0,
          613.0,
          612.0,
          613.0,
          613.0,
          613.0,
          612.0,
          611.0,
          614.0,
          614.0,
          616.0,
          615.0,
          615.0,
          614.0,
          615.0,
          615.0,
          613.0,
          613.0,
          615.0,
          615.0,
          613.0,
          613.0,
          613.0,
          614.0,
          613.0,
          615.0,
          615.0,
          615.0,
          612.0,
          615.0,
          615.0,
          613.0,
          614.0,
          615.0,
          615.0,
          615.0,
          614.0,
          612.0,
          613.0,
          613.0,
          614.0,
          612.0,
          611.0,
          612.0,
          614.0,
          610.0,
          615.0,
          614.0,
          614.0,
          612.0,
          614.0,
          612.0,
          612.0,
          612.0,
          612.0,
          612.0,
          613.0,
          614.0,
          612.0,
          612.0,
          612.0,
          613.0,
          611.0,
          611.0,
          609.0,
          610.0,
          611.0,
          611.0,
          614.0,
          613.0,
          614.0,
          614.0,
          611.0,
          614.0,
