{
  "aor": 0.018863719512195117,
  "aqi": 0.02983537134146342,
  "bids_meta": {
    "AcquisitionMatrixPE": 64,
    "AcquisitionNumber": 1,
    "AcquisitionTime": "16:04:7.610000",
    "BandwidthPerPixelPhaseEncode": 26.483,
    "BaseResolution": 64,
    "BodyPartExamined": "HEAD",
    "CogAtlasID": "TODO",
    "ConversionSoftware": "dcm2niix",
    "ConversionSoftwareVersion": "v1.0.20171017 GCC6.3.0",
    "DerivedVendorReportedEchoSpacing": 0.000590001,
    "DeviceSerialNumber": "35177",
    "DwellTime": 4.1e-06,
    "EchoTime": 0.027,
    "EffectiveEchoSpacing": 0.000590001,
    "FlipAngle": 90,
    "ImageOrientationPatientDICOM": [
      0.991706,
      -0.00747498,
      0.128307,
      0.00342175,
      0.999489,
      0.0317816
    ],
    "ImageType": [
      "ORIGINAL",
      "PRIMARY",
      "M",
      "ND",
      "NORM",
      "MOSAIC"
    ],
    "InPlanePhaseEncodingDirectionDICOM": "COL",
    "InstitutionAddress": "Scott_Ave._4525_St._Louis_MO_US_63110",
    "InstitutionName": "Washington_University",
    "InstitutionalDepartmentName": "Department",
    "MRAcquisitionType": "2D",
    "MagneticFieldStrength": 3,
    "Manufacturer": "Siemens",
    "ManufacturersModelName": "TrioTim",
    "Modality": "MR",
    "PartialFourier": 1,
    "PatientPosition": "HFS",
    "PercentPhaseFOV": 100,
    "PhaseEncodingDirection": "j-",
    "PhaseEncodingSteps": 64,
    "PhaseResolution": 1,
    "PixelBandwidth": 1905,
    "ProcedureStepDescription": "head_GREENE",
    "ProtocolName": "ep2d_bold_ad_rest",
    "PulseSequenceDetails": "%SiemensSeq%_ep2d_bold",
    "ReceiveCoilName": "HeadMatrix",
    "ReconMatrixPE": 64,
    "RepetitionTime": 2.5,
    "SAR": 0.15654,
    "ScanOptions": "FS",
    "ScanningSequence": "EP",
    "SequenceName": "_epfid2d1_64",
    "SequenceVariant": "SK",
    "SeriesDescription": "ep2d_bold_ad_rest",
    "SeriesNumber": 13,
    "ShimSetting": [
      -190,
      -19653,
      7997,
      163,
      -45,
      -693,
      25,
      -28
    ],
    "SliceThickness": 4,
    "SliceTiming": [
      1.255,
      0,
      1.335,
      0.08,
      1.4125,
      0.1575,
      1.49,
      0.235,
      1.57,
      0.315,
      1.6475,
      0.3925,
      1.725,
      0.4725,
      1.805,
      0.55,
      1.8825,
      0.6275,
      1.9625,
      0.7075,
      2.04,
      0.785,
      2.1175,
      0.8625,
      2.1975,
      0.9425,
      2.275,
      1.02,
      2.3525,
      1.0975,
      2.4325,
      1.1775
    ],
    "SoftwareVersions": "syngo_MR_B17",
    "SpacingBetweenSlices": 4,
    "StationName": "MRC35177",
    "TaskName": "restfixationadaptive",
    "TotalReadoutTime": 0.0371701,
    "TxRefAmp": 355.816,
    "dataset": "ds000256",
    "dcmmeta_affine": [
      [
        -3.966825485229492,
        0.01368700247257948,
        0.5139144659042358,
        116.89867401123047
      ],
      [
        0.029899917542934418,
        3.9979560375213623,
        0.12431589514017105,
        -133.6460418701172
      ],
      [
        0.5132263898849487,
        -0.12712635099887848,
        3.9649012088775635,
        -25.37476921081543
      ],
      [
        0.0,
        0.0,
        0.0,
        1.0
      ]
    ],
    "dcmmeta_reorient_transform": [
      [
        0.0,
        -1.0,
        0.0,
        63.0
      ],
      [
        1.0,
        0.0,
        0.0,
        0.0
      ],
      [
        0.0,
        0.0,
        1.0,
        0.0
      ],
      [
        0.0,
        0.0,
        0.0,
        1.0
      ]
    ],
    "dcmmeta_shape": [
      64,
      64,
      32,
      164
    ],
    "dcmmeta_slice_dim": 2,
    "dcmmeta_version": 0.6,
    "global": {
      "const": {
        "AccessionNumber": ".",
        "AcquisitionMatrix": [
          64,
          0,
          0,
          64
        ],
        "AngioFlag": "N",
        "BitsAllocated": 16,
        "BitsStored": 12,
        "BodyPartExamined": "HEAD",
        "Columns": 384,
        "DeidentificationMethodCodeSequence": [
          {
            "CodeMeaning": "XNAT Edit Script",
            "CodeValue": "625500",
            "CodingSchemeDesignator": "XNAT",
            "CodingSchemeVersion": "0.1"
          }
        ],
        "EchoNumbers": 1,
        "EchoTime": 27.0,
        "EchoTrainLength": 1,
        "FlipAngle": 90.0,
        "HighBit": 11,
        "ImageOrientationPatient": [
          0.99170637892917,
          -0.0074749792442,
          0.12830659638732,
          0.00342175066256,
          0.99948898056264,
          0.0317815883219
        ],
        "ImagePositionPatient": [
          -754.64296029678,
          -753.11414757431,
          -135.84016855993
        ],
        "ImageType": [
          "ORIGINAL",
          "PRIMARY",
          "M",
          "ND",
          "NORM",
          "MOSAIC"
        ],
        "ImagedNucleus": "1H",
        "ImagingFrequency": 123.256074,
        "InPlanePhaseEncodingDirection": "COL",
        "MRAcquisitionType": "2D",
        "MagneticFieldStrength": 3.0,
        "Manufacturer": "SIEMENS",
        "ManufacturerModelName": "TrioTim",
        "Modality": "MR",
        "NumberOfAverages": 1.0,
        "NumberOfPhaseEncodingSteps": 64,
        "PercentPhaseFieldOfView": 100.0,
        "PercentSampling": 100.0,
        "PerformedProcedureStepStartTime": "150845.312000",
        "PhotometricInterpretation": "MONOCHROME2",
        "PixelBandwidth": 1905.0,
        "PixelRepresentation": 0,
        "PixelSpacing": [
          4.0,
          4.0
        ],
        "PositionReferenceIndicator": "",
        "ProtocolName": "ep2d_bold_ad_rest",
        "RepetitionTime": 2500.0,
        "Rows": 384,
        "SAR": 0.15653991715137,
        "SamplesPerPixel": 1,
        "ScanOptions": "FS",
        "ScanningSequence": "EP",
        "SequenceName": "*epfid2d1_64",
        "SequenceVariant": "SK",
        "SeriesDescription": "ep2d_bold_ad_rest",
        "SeriesNumber": 13,
        "SeriesTime": "160409.312000",
        "SliceLocation": -14.286714390717,
        "SliceThickness": 4.0,
        "SmallestImagePixelValue": 0,
        "SoftwareVersions": "syngo MR B17",
        "SpacingBetweenSlices": 4.0000004546571,
        "SpecificCharacterSet": "ISO_IR 100",
        "StudyID": "1",
        "StudyTime": "150845.265000",
        "TransmitCoilName": "Body",
        "VariableFlipAngleFlag": "N",
        "WindowCenterWidthExplanation": "Algo1",
        "dBdt": 0.0
      },
      "slices": {}
    },
    "modality": "bold",
    "subject_id": "CTS235",
    "task_id": "restfixationadaptive",
    "time": {
      "samples": {
        "AcquisitionNumber": [
          1,
          2,
          3,
          4,
          5,
          6,
          7,
          8,
          9,
          10,
          11,
          12,
          13,
          14,
          15,
          16,
          17,
          18,
          19,
          20,
          21,
          22,
          23,
          24,
          25,
          26,
          27,
          28,
          29,
          30,
          31,
          32,
          33,
          34,
          35,
          36,
          37,
          38,
          39,
          40,
          41,
          42,
          43,
          44,
          45,
          46,
          47,
          48,
          49,
          50,
          51,
          52,
          53,
          54,
          55,
          56,
          57,
          58,
          59,
          60,
          61,
          62,
          63,
          64,
          65,
          66,
          67,
          68,
          69,
          70,
          71,
          72,
          73,
          74,
          75,
          76,
          77,
          78,
          79,
          80,
          81,
          82,
          83,
          84,
          85,
          86,
          87,
          88,
          89,
          90,
          91,
          92,
          93,
          94,
          95,
          96,
          97,
          98,
          99,
          100,
          101,
          102,
          103,
          104,
          105,
          106,
          107,
          108,
          109,
          110,
          111,
          112,
          113,
          114,
          115,
          116,
          117,
          118,
          119,
          120,
          121,
          122,
          123,
          124,
          125,
          126,
          127,
          128,
          129,
          130,
          131,
          132,
          133,
          134,
          135,
          136,
          137,
          138,
          139,
          140,
          141,
          142,
          143,
          144,
          145,
          146,
          147,
          148,
          149,
          150,
          151,
          152,
          153,
          154,
          155,
          156,
          157,
          158,
          159,
          160,
          161,
          162,
          163,
          164
        ],
        "AcquisitionTime": [
          "160407.610000",
          "160410.120000",
          "160412.630000",
          "160415.140000",
          "160417.650000",
          "160420.160000",
          "160422.670000",
          "160425.180000",
          "160427.690000",
          "160430.200000",
          "160432.710000",
          "160435.220000",
          "160437.730000",
          "160440.240000",
          "160442.750000",
          "160445.260000",
          "160447.770000",
          "160450.282500",
          "160452.792500",
          "160455.302500",
          "160457.812500",
          "160500.322500",
          "160502.832500",
          "160505.342500",
          "160507.852500",
          "160510.362500",
          "160512.872500",
          "160515.382500",
          "160517.892500",
          "160520.402500",
          "160522.912500",
          "160525.422500",
          "160527.932500",
          "160530.442500",
          "160532.952500",
          "160535.462500",
          "160537.972500",
          "160540.482500",
          "160542.992500",
          "160545.502500",
          "160548.012500",
          "160550.522500",
          "160553.032500",
          "160555.542500",
          "160558.052500",
          "160600.562500",
          "160603.072500",
          "160605.582500",
          "160608.092500",
          "160610.602500",
          "160613.112500",
          "160615.622500",
          "160618.132500",
          "160620.642500",
          "160623.152500",
          "160625.662500",
          "160628.172500",
          "160630.682500",
          "160633.192500",
          "160635.702500",
          "160638.212500",
          "160640.722500",
          "160643.232500",
          "160645.742500",
          "160648.252500",
          "160650.762500",
          "160653.272500",
          "160655.782500",
          "160658.292500",
          "160700.802500",
          "160703.312500",
          "160705.822500",
          "160708.332500",
          "160710.842500",
          "160713.352500",
          "160715.862500",
          "160718.372500",
          "160720.882500",
          "160723.392500",
          "160725.905000",
          "160728.415000",
          "160730.925000",
          "160733.435000",
          "160735.945000",
          "160738.455000",
          "160740.965000",
          "160743.475000",
          "160745.985000",
          "160748.495000",
          "160751.005000",
          "160753.515000",
          "160756.025000",
          "160758.535000",
          "160801.045000",
          "160803.555000",
          "160806.065000",
          "160808.575000",
          "160811.085000",
          "160813.595000",
          "160816.105000",
          "160818.615000",
          "160821.125000",
          "160823.635000",
          "160826.145000",
          "160828.655000",
          "160831.165000",
          "160833.675000",
          "160836.185000",
          "160838.695000",
          "160841.205000",
          "160843.715000",
          "160846.225000",
          "160848.735000",
          "160851.245000",
          "160853.755000",
          "160856.265000",
          "160858.775000",
          "160901.285000",
          "160903.795000",
          "160906.305000",
          "160908.815000",
          "160911.325000",
          "160913.835000",
          "160916.345000",
          "160918.855000",
          "160921.365000",
          "160923.875000",
          "160926.385000",
          "160928.895000",
          "160931.405000",
          "160933.915000",
          "160936.425000",
          "160938.935000",
          "160941.445000",
          "160943.955000",
          "160946.465000",
          "160948.975000",
          "160951.485000",
          "160953.995000",
          "160956.505000",
          "160959.015000",
          "161001.527500",
          "161004.037500",
          "161006.547500",
          "161009.057500",
          "161011.567500",
          "161014.077500",
          "161016.587500",
          "161019.097500",
          "161021.607500",
          "161024.117500",
          "161026.627500",
          "161029.137500",
          "161031.647500",
          "161034.157500",
          "161036.667500",
          "161039.177500",
          "161041.687500",
          "161044.197500",
          "161046.707500",
          "161049.217500",
          "161051.727500",
          "161054.237500",
          "161056.747500"
        ],
        "ContentTime": [
          "160409.312000",
          "160411.812000",
          "160414.312000",
          "160416.812000",
          "160419.312000",
          "160421.812000",
          "160424.312000",
          "160426.812000",
          "160429.312000",
          "160431.812000",
          "160434.312000",
          "160436.812000",
          "160439.312000",
          "160441.812000",
          "160444.312000",
          "160446.812000",
          "160449.312000",
          "160451.812000",
          "160454.312000",
          "160456.812000",
          "160459.312000",
          "160501.812000",
          "160504.312000",
          "160506.812000",
          "160509.312000",
          "160511.812000",
          "160514.312000",
          "160516.812000",
          "160519.312000",
          "160521.812000",
          "160524.312000",
          "160526.812000",
          "160529.312000",
          "160531.812000",
          "160534.312000",
          "160536.812000",
          "160539.312000",
          "160541.812000",
          "160544.312000",
          "160546.812000",
          "160549.312000",
          "160551.812000",
          "160554.312000",
          "160556.812000",
          "160559.312000",
          "160601.812000",
          "160604.312000",
          "160606.812000",
          "160609.312000",
          "160611.812000",
          "160614.312000",
          "160616.812000",
          "160619.312000",
          "160621.812000",
          "160624.312000",
          "160626.812000",
          "160629.312000",
          "160631.812000",
          "160634.312000",
          "160636.812000",
          "160639.312000",
          "160641.812000",
          "160644.312000",
          "160646.812000",
          "160649.312000",
          "160651.812000",
          "160654.312000",
          "160656.812000",
          "160659.312000",
          "160701.812000",
          "160704.312000",
          "160706.812000",
          "160709.312000",
          "160711.812000",
          "160714.312000",
          "160716.812000",
          "160719.312000",
          "160721.812000",
          "160724.312000",
          "160726.812000",
          "160729.312000",
          "160731.812000",
          "160734.312000",
          "160736.812000",
          "160739.312000",
          "160741.812000",
          "160744.312000",
          "160746.812000",
          "160749.312000",
          "160751.812000",
          "160754.312000",
          "160756.812000",
          "160759.312000",
          "160801.812000",
          "160804.312000",
          "160806.812000",
          "160809.312000",
          "160811.812000",
          "160814.312000",
          "160816.812000",
          "160819.312000",
          "160821.812000",
          "160824.312000",
          "160826.812000",
          "160829.312000",
          "160831.812000",
          "160834.312000",
          "160836.812000",
          "160839.312000",
          "160841.812000",
          "160844.312000",
          "160846.812000",
          "160849.312000",
          "160851.812000",
          "160854.312000",
          "160856.812000",
          "160859.312000",
          "160901.812000",
          "160904.312000",
          "160906.812000",
          "160909.312000",
          "160911.812000",
          "160914.312000",
          "160916.812000",
          "160919.312000",
          "160921.812000",
          "160924.312000",
          "160926.812000",
          "160929.312000",
          "160931.812000",
          "160934.312000",
          "160936.812000",
          "160939.312000",
          "160941.812000",
          "160944.312000",
          "160946.812000",
          "160949.312000",
          "160951.812000",
          "160954.312000",
          "160956.812000",
          "160959.312000",
          "161001.812000",
          "161004.312000",
          "161006.812000",
          "161009.312000",
          "161011.812000",
          "161014.312000",
          "161016.812000",
          "161019.312000",
          "161021.812000",
          "161024.312000",
          "161026.812000",
          "161029.312000",
          "161031.812000",
          "161034.312000",
          "161036.812000",
          "161039.312000",
          "161041.812000",
          "161044.312000",
          "161046.812000",
          "161049.312000",
          "161051.812000",
          "161054.312000",
          "161056.750000"
        ],
        "InstanceCreationTime": [
          "160409.312000",
          "160411.812000",
          "160414.312000",
          "160416.812000",
          "160419.312000",
          "160421.812000",
          "160424.312000",
          "160426.812000",
          "160429.312000",
          "160431.812000",
          "160434.312000",
          "160436.812000",
          "160439.312000",
          "160441.812000",
          "160444.312000",
          "160446.812000",
          "160449.312000",
          "160451.812000",
          "160454.312000",
          "160456.812000",
          "160459.312000",
          "160501.812000",
          "160504.312000",
          "160506.812000",
          "160509.312000",
          "160511.812000",
          "160514.312000",
          "160516.812000",
          "160519.312000",
          "160521.812000",
          "160524.312000",
          "160526.812000",
          "160529.312000",
          "160531.812000",
          "160534.312000",
          "160536.812000",
          "160539.312000",
          "160541.812000",
          "160544.312000",
          "160546.812000",
          "160549.312000",
          "160551.812000",
          "160554.312000",
          "160556.812000",
          "160559.312000",
          "160601.812000",
          "160604.312000",
          "160606.812000",
          "160609.312000",
          "160611.812000",
          "160614.312000",
          "160616.812000",
          "160619.312000",
          "160621.812000",
          "160624.312000",
          "160626.812000",
          "160629.312000",
          "160631.812000",
          "160634.312000",
          "160636.812000",
          "160639.312000",
          "160641.812000",
          "160644.312000",
          "160646.812000",
          "160649.312000",
          "160651.812000",
          "160654.312000",
          "160656.812000",
          "160659.312000",
          "160701.812000",
          "160704.312000",
          "160706.812000",
          "160709.312000",
          "160711.812000",
          "160714.312000",
          "160716.812000",
          "160719.312000",
          "160721.812000",
          "160724.312000",
          "160726.812000",
          "160729.312000",
          "160731.812000",
          "160734.312000",
          "160736.812000",
          "160739.312000",
          "160741.812000",
          "160744.312000",
          "160746.812000",
          "160749.312000",
          "160751.812000",
          "160754.312000",
          "160756.812000",
          "160759.312000",
          "160801.812000",
          "160804.312000",
          "160806.812000",
          "160809.312000",
          "160811.812000",
          "160814.312000",
          "160816.812000",
          "160819.312000",
          "160821.812000",
          "160824.312000",
          "160826.812000",
          "160829.312000",
          "160831.812000",
          "160834.312000",
          "160836.812000",
          "160839.312000",
          "160841.812000",
          "160844.312000",
          "160846.812000",
          "160849.312000",
          "160851.812000",
          "160854.312000",
          "160856.812000",
          "160859.312000",
          "160901.812000",
          "160904.312000",
          "160906.812000",
          "160909.312000",
          "160911.812000",
          "160914.312000",
          "160916.812000",
          "160919.312000",
          "160921.812000",
          "160924.312000",
          "160926.812000",
          "160929.312000",
          "160931.812000",
          "160934.312000",
          "160936.812000",
          "160939.312000",
          "160941.812000",
          "160944.312000",
          "160946.812000",
          "160949.312000",
          "160951.812000",
          "160954.312000",
          "160956.812000",
          "160959.312000",
          "161001.812000",
          "161004.312000",
          "161006.812000",
          "161009.312000",
          "161011.812000",
          "161014.312000",
          "161016.812000",
          "161019.312000",
          "161021.812000",
          "161024.312000",
          "161026.812000",
          "161029.312000",
          "161031.812000",
          "161034.312000",
          "161036.812000",
          "161039.312000",
          "161041.812000",
          "161044.312000",
          "161046.812000",
          "161049.312000",
          "161051.812000",
          "161054.312000",
          "161056.750000"
        ],
        "InstanceNumber": [
          1,
          2,
          3,
          4,
          5,
          6,
          7,
          8,
          9,
          10,
          11,
          12,
          13,
          14,
          15,
          16,
          17,
          18,
          19,
          20,
          21,
          22,
          23,
          24,
          25,
          26,
          27,
          28,
          29,
          30,
          31,
          32,
          33,
          34,
          35,
          36,
          37,
          38,
          39,
          40,
          41,
          42,
          43,
          44,
          45,
          46,
          47,
          48,
          49,
          50,
          51,
          52,
          53,
          54,
          55,
          56,
          57,
          58,
          59,
          60,
          61,
          62,
          63,
          64,
          65,
          66,
          67,
          68,
          69,
          70,
          71,
          72,
          73,
          74,
          75,
          76,
          77,
          78,
          79,
          80,
          81,
          82,
          83,
          84,
          85,
          86,
          87,
          88,
          89,
          90,
          91,
          92,
          93,
          94,
          95,
          96,
          97,
          98,
          99,
          100,
          101,
          102,
          103,
          104,
          105,
          106,
          107,
          108,
          109,
          110,
          111,
          112,
          113,
          114,
          115,
          116,
          117,
          118,
          119,
          120,
          121,
          122,
          123,
          124,
          125,
          126,
          127,
          128,
          129,
          130,
          131,
          132,
          133,
          134,
          135,
          136,
          137,
          138,
          139,
          140,
          141,
          142,
          143,
          144,
          145,
          146,
          147,
          148,
          149,
          150,
          151,
          152,
          153,
          154,
          155,
          156,
          157,
          158,
          159,
          160,
          161,
          162,
          163,
          164
        ],
        "LargestImagePixelValue": [
          1553,
          1451,
          1378,
          1296,
          1279,
          1362,
          1342,
          1354,
          1271,
          1324,
          1297,
          1346,
          1358,
          1273,
          1333,
          1300,
          1374,
          1352,
          1357,
          1367,
          1425,
          1447,
          1281,
          1268,
          1263,
          1461,
          1339,
          1261,
          1265,
          1255,
          1323,
          1292,
          1288,
          1571,
          1296,
          1274,
          1296,
          1253,
          1277,
          1291,
          1327,
          1259,
          1291,
          1334,
          1362,
          1547,
          1723,
          1351,
          1403,
          1346,
          1316,
          1317,
          1356,
          1317,
          1335,
          1298,
          1335,
          1327,
          1288,
          1316,
          1305,
          1354,
          1346,
          1301,
          1341,
          1350,
          1756,
          1601,
          1355,
          1521,
          1355,
          1291,
          1329,
          1319,
          1319,
          1325,
          1341,
          1322,
          1316,
          1313,
          1317,
          1322,
          1322,
          1293,
          1491,
          1332,
          1351,
          1332,
          1372,
          1533,
          1362,
          1380,
          1343,
          1477,
          1604,
          1330,
          1328,
          1404,
          1354,
          1613,
          1345,
          1396,
          1635,
          1418,
          1362,
          1339,
          1381,
          1372,
          1405,
          1370,
          1367,
          1375,
          1479,
          1352,
          1358,
          1365,
          1355,
          1364,
          1361,
          1357,
          1346,
          1366,
          1353,
          1349,
          1354,
          1324,
          1401,
          1335,
          1361,
          1412,
          1313,
          1360,
          1381,
          1322,
          1329,
          1329,
          1340,
          1364,
          1453,
          1353,
          1301,
          1525,
          1338,
          1635,
          1358,
          1403,
          1413,
          1582,
          1326,
          1312,
          1333,
          1370,
          1395,
          1385,
          1675,
          1371,
          1395,
          1372,
          1343,
          1370,
          1356,
          1379,
          1343,
          1379
        ],
        "WindowCenter": [
          616.0,
          614.0,
          615.0,
          614.0,
          615.0,
          616.0,
          616.0,
          614.0,
          616.0,
          616.0,
          614.0,
          615.0,
          613.0,
          613.0,
          615.0,
          613.0,
          615.0,
          616.0,
          614.0,
          615.0,
          616.0,
          613.0,
          615.0,
          615.0,
          616.0,
          615.0,
          613.0,
          615.0,
          615.0,
          615.0,
          616.0,
          615.0,
          616.0,
          617.0,
          616.0,
          616.0,
          615.0,
          615.0,
          616.0,
          616.0,
          616.0,
          616.0,
          611.0,
          606.0,
          607.0,
          617.0,
          612.0,
          609.0,
          611.0,
          610.0,
          611.0,
          613.0,
          614.0,
          614.0,
          615.0,
          615.0,
          615.0,
          616.0,
          617.0,
          615.0,
          616.0,
          617.0,
          617.0,
          618.0,
          616.0,
          617.0,
          618.0,
          615.0,
          613.0,
          616.0,
          615.0,
          616.0,
          617.0,
          617.0,
          617.0,
          618.0,
          610.0,
          616.0,
          617.0,
          616.0,
          617.0,
          616.0,
          618.0,
          617.0,
          618.0,
          617.0,
          617.0,
          618.0,
          617.0,
          617.0,
          618.0,
          617.0,
          618.0,
          619.0,
          618.0,
          618.0,
          618.0,
          619.0,
          617.0,
          617.0,
          617.0,
          615.0,
          616.0,
          614.0,
          615.0,
          615.0,
          615.0,
          616.0,
          616.0,
          614.0,
          616.0,
          616.0,
          616.0,
          615.0,
          614.0,
          615.0,
          610.0,
          613.0,
          612.0,
          612.0,
          612.0,
          614.0,
          614.0,
          616.0,
          615.0,
          616.0,
          616.0,
          616.0,
          616.0,
          616.0,
          616.0,
          617.0,
          617.0,
          617.0,
          617.0,
          617.0,
          619.0,
          619.0,
          618.0,
          618.0,
          618.0,
          619.0,
          618.0,
          619.0,
          618.0,
          618.0,
          618.0,
          617.0,
          616.0,
