{
  "aor": 0.01777109756097561,
  "aqi": 0.018145083231707312,
  "bids_meta": {
    "AcquisitionMatrixPE": 64,
    "AcquisitionNumber": 1,
    "AcquisitionTime": "15:24:13.467500",
    "BandwidthPerPixelPhaseEncode": 26.483,
    "BaseResolution": 64,
    "BodyPartExamined": "HEAD",
    "CogAtlasID": "TODO",
    "ConversionSoftware": "dcm2niix",
    "ConversionSoftwareVersion": "v1.0.20171017 GCC6.3.0",
    "DerivedVendorReportedEchoSpacing": 0.000590001,
    "DeviceSerialNumber": "35177",
    "DwellTime": 4.1e-06,
    "EchoTime": 0.027,
    "EffectiveEchoSpacing": 0.000590001,
    "FlipAngle": 90,
    "ImageOrientationPatientDICOM": [
      0.995416,
      0.0555592,
      0.0778464,
      -0.0584318,
      0.997673,
      0.0351203
    ],
    "ImageType": [
      "ORIGINAL",
      "PRIMARY",
      "M",
      "ND",
      "NORM",
      "MOSAIC"
    ],
    "InPlanePhaseEncodingDirectionDICOM": "COL",
    "InstitutionAddress": "Scott_Ave._4525_St._Louis_MO_US_63110",
    "InstitutionName": "Washington_University",
    "InstitutionalDepartmentName": "Department",
    "MRAcquisitionType": "2D",
    "MagneticFieldStrength": 3,
    "Manufacturer": "Siemens",
    "ManufacturersModelName": "TrioTim",
    "Modality": "MR",
    "PartialFourier": 1,
    "PatientPosition": "HFS",
    "PercentPhaseFOV": 100,
    "PhaseEncodingDirection": "j-",
    "PhaseEncodingSteps": 64,
    "PhaseResolution": 1,
    "PixelBandwidth": 1905,
    "ProcedureStepDescription": "head_GREENE",
    "ProtocolName": "ep2d_bold_movie_3A",
    "PulseSequenceDetails": "%SiemensSeq%_ep2d_bold",
    "ReceiveCoilName": "HeadMatrix",
    "ReconMatrixPE": 64,
    "RepetitionTime": 2.5,
    "SAR": 0.131919,
    "ScanOptions": "FS",
    "ScanningSequence": "EP",
    "SequenceName": "_epfid2d1_64",
    "SequenceVariant": "SK",
    "SeriesDescription": "ep2d_bold_movie_3A",
    "SeriesNumber": 6,
    "ShimSetting": [
      -168,
      -19566,
      7959,
      293,
      -15,
      -599,
      54,
      -77
    ],
    "SliceThickness": 4,
    "SliceTiming": [
      1.255,
      0,
      1.3325,
      0.0775,
      1.41,
      0.1575,
      1.49,
      0.235,
      1.5675,
      0.3125,
      1.6475,
      0.3925,
      1.725,
      0.47,
      1.8025,
      0.5475,
      1.8825,
      0.6275,
      1.96,
      0.705,
      2.0375,
      0.785,
      2.1175,
      0.8625,
      2.195,
      0.94,
      2.275,
      1.02,
      2.3525,
      1.0975,
      2.43,
      1.175
    ],
    "SoftwareVersions": "syngo_MR_B17",
    "SpacingBetweenSlices": 4,
    "StationName": "MRC35177",
    "TaskName": "restmovienofeedback",
    "TotalReadoutTime": 0.0371701,
    "TxRefAmp": 338.66,
    "dataset": "ds000256",
    "dcmmeta_affine": [
      [
        -3.9816641807556152,
        -0.23372702300548553,
        0.3028559982776642,
        130.40554809570312
      ],
      [
        -0.2222367376089096,
        3.9906938076019287,
        0.15803197026252747,
        -129.5867462158203
      ],
      [
        0.31138551235198975,
        -0.1404811441898346,
        3.9853856563568115,
        -52.14447021484375
      ],
      [
        0.0,
        0.0,
        0.0,
        1.0
      ]
    ],
    "dcmmeta_reorient_transform": [
      [
        0.0,
        -1.0,
        0.0,
        63.0
      ],
      [
        1.0,
        0.0,
        0.0,
        0.0
      ],
      [
        0.0,
        0.0,
        1.0,
        0.0
      ],
      [
        0.0,
        0.0,
        0.0,
        1.0
      ]
    ],
    "dcmmeta_shape": [
      64,
      64,
      32,
      164
    ],
    "dcmmeta_slice_dim": 2,
    "dcmmeta_version": 0.6,
    "global": {
      "const": {
        "AccessionNumber": ".",
        "AcquisitionMatrix": [
          64,
          0,
          0,
          64
        ],
        "AngioFlag": "N",
        "BitsAllocated": 16,
        "BitsStored": 12,
        "BodyPartExamined": "HEAD",
        "Columns": 384,
        "DeidentificationMethodCodeSequence": [
          {
            "CodeMeaning": "XNAT Edit Script",
            "CodeValue": "625500",
            "CodingSchemeDesignator": "XNAT",
            "CodingSchemeVersion": "0.1"
          }
        ],
        "EchoNumbers": 1,
        "EchoTime": 27.0,
        "EchoTrainLength": 1,
        "FlipAngle": 90.0,
        "HighBit": 11,
        "ImageOrientationPatient": [
          0.99541605286516,
          0.05555918320862,
          0.07784637987428,
          -0.0584317566844,
          0.99767344123605,
          0.03512028563383
        ],
        "ImagePositionPatient": [
          -715.35068886792,
          -795.89583344521,
          -133.2934485487
        ],
        "ImageType": [
          "ORIGINAL",
          "PRIMARY",
          "M",
          "ND",
          "NORM",
          "MOSAIC"
        ],
        "ImagedNucleus": "1H",
        "ImagingFrequency": 123.256123,
        "InPlanePhaseEncodingDirection": "COL",
        "MRAcquisitionType": "2D",
        "MagneticFieldStrength": 3.0,
        "Manufacturer": "SIEMENS",
        "ManufacturerModelName": "TrioTim",
        "Modality": "MR",
        "NumberOfAverages": 1.0,
        "NumberOfPhaseEncodingSteps": 64,
        "PercentPhaseFieldOfView": 100.0,
        "PercentSampling": 100.0,
        "PerformedProcedureStepStartTime": "150845.312000",
        "PhotometricInterpretation": "MONOCHROME2",
        "PixelBandwidth": 1905.0,
        "PixelRepresentation": 0,
        "PixelSpacing": [
          4.0,
          4.0
        ],
        "PositionReferenceIndicator": "",
        "ProtocolName": "ep2d_bold_movie_3A",
        "RepetitionTime": 2500.0,
        "Rows": 384,
        "SAR": 0.13191939945791,
        "SamplesPerPixel": 1,
        "ScanOptions": "FS",
        "ScanningSequence": "EP",
        "SequenceName": "*epfid2d1_64",
        "SequenceVariant": "SK",
        "SeriesDescription": "ep2d_bold_movie_3A",
        "SeriesNumber": 6,
        "SeriesTime": "152415.750000",
        "SliceLocation": -47.200151330892,
        "SliceThickness": 4.0,
        "SmallestImagePixelValue": 0,
        "SoftwareVersions": "syngo MR B17",
        "SpacingBetweenSlices": 3.9999994505461,
        "SpecificCharacterSet": "ISO_IR 100",
        "StudyID": "1",
        "StudyTime": "150845.265000",
        "TransmitCoilName": "Body",
        "VariableFlipAngleFlag": "N",
        "WindowCenterWidthExplanation": "Algo1",
        "dBdt": 0.0
      },
      "slices": {}
    },
    "modality": "bold",
    "subject_id": "CTS235",
    "task_id": "restmovienofeedback",
    "time": {
      "samples": {
        "AcquisitionNumber": [
          1,
          2,
          3,
          4,
          5,
          6,
          7,
          8,
          9,
          10,
          11,
          12,
          13,
          14,
          15,
          16,
          17,
          18,
          19,
          20,
          21,
          22,
          23,
          24,
          25,
          26,
          27,
          28,
          29,
          30,
          31,
          32,
          33,
          34,
          35,
          36,
          37,
          38,
          39,
          40,
          41,
          42,
          43,
          44,
          45,
          46,
          47,
          48,
          49,
          50,
          51,
          52,
          53,
          54,
          55,
          56,
          57,
          58,
          59,
          60,
          61,
          62,
          63,
          64,
          65,
          66,
          67,
          68,
          69,
          70,
          71,
          72,
          73,
          74,
          75,
          76,
          77,
          78,
          79,
          80,
          81,
          82,
          83,
          84,
          85,
          86,
          87,
          88,
          89,
          90,
          91,
          92,
          93,
          94,
          95,
          96,
          97,
          98,
          99,
          100,
          101,
          102,
          103,
          104,
          105,
          106,
          107,
          108,
          109,
          110,
          111,
          112,
          113,
          114,
          115,
          116,
          117,
          118,
          119,
          120,
          121,
          122,
          123,
          124,
          125,
          126,
          127,
          128,
          129,
          130,
          131,
          132,
          133,
          134,
          135,
          136,
          137,
          138,
          139,
          140,
          141,
          142,
          143,
          144,
          145,
          146,
          147,
          148,
          149,
          150,
          151,
          152,
          153,
          154,
          155,
          156,
          157,
          158,
          159,
          160,
          161,
          162,
          163,
          164
        ],
        "AcquisitionTime": [
          "152413.467500",
          "152415.977500",
          "152418.487500",
          "152420.997500",
          "152423.507500",
          "152426.017500",
          "152428.527500",
          "152431.037500",
          "152433.547500",
          "152436.057500",
          "152438.567500",
          "152441.077500",
          "152443.587500",
          "152446.097500",
          "152448.607500",
          "152451.117500",
          "152453.627500",
          "152456.137500",
          "152458.647500",
          "152501.157500",
          "152503.667500",
          "152506.177500",
          "152508.687500",
          "152511.197500",
          "152513.707500",
          "152516.217500",
          "152518.727500",
          "152521.237500",
          "152523.747500",
          "152526.257500",
          "152528.767500",
          "152531.277500",
          "152533.787500",
          "152536.297500",
          "152538.807500",
          "152541.317500",
          "152543.827500",
          "152546.337500",
          "152548.847500",
          "152551.357500",
          "152553.867500",
          "152556.377500",
          "152558.887500",
          "152601.397500",
          "152603.907500",
          "152606.417500",
          "152608.927500",
          "152611.437500",
          "152613.950000",
          "152616.460000",
          "152618.970000",
          "152621.480000",
          "152623.990000",
          "152626.500000",
          "152629.010000",
          "152631.520000",
          "152634.030000",
          "152636.540000",
          "152639.050000",
          "152641.560000",
          "152644.070000",
          "152646.580000",
          "152649.090000",
          "152651.600000",
          "152654.110000",
          "152656.620000",
          "152659.130000",
          "152701.640000",
          "152704.150000",
          "152706.660000",
          "152709.170000",
          "152711.680000",
          "152714.190000",
          "152716.700000",
          "152719.210000",
          "152721.720000",
          "152724.230000",
          "152726.740000",
          "152729.250000",
          "152731.760000",
          "152734.270000",
          "152736.780000",
          "152739.290000",
          "152741.800000",
          "152744.310000",
          "152746.820000",
          "152749.330000",
          "152751.840000",
          "152754.350000",
          "152756.860000",
          "152759.370000",
          "152801.880000",
          "152804.390000",
          "152806.900000",
          "152809.410000",
          "152811.920000",
          "152814.430000",
          "152816.940000",
          "152819.450000",
          "152821.960000",
          "152824.470000",
          "152826.980000",
          "152829.490000",
          "152832.000000",
          "152834.510000",
          "152837.020000",
          "152839.530000",
          "152842.040000",
          "152844.550000",
          "152847.060000",
          "152849.572500",
          "152852.082500",
          "152854.592500",
          "152857.102500",
          "152859.612500",
          "152902.122500",
          "152904.632500",
          "152907.142500",
          "152909.652500",
          "152912.162500",
          "152914.672500",
          "152917.182500",
          "152919.692500",
          "152922.202500",
          "152924.712500",
          "152927.222500",
          "152929.732500",
          "152932.242500",
          "152934.752500",
          "152937.262500",
          "152939.772500",
          "152942.282500",
          "152944.792500",
          "152947.302500",
          "152949.812500",
          "152952.322500",
          "152954.832500",
          "152957.342500",
          "152959.852500",
          "153002.362500",
          "153004.872500",
          "153007.382500",
          "153009.892500",
          "153012.402500",
          "153014.912500",
          "153017.422500",
          "153019.932500",
          "153022.442500",
          "153024.952500",
          "153027.462500",
          "153029.972500",
          "153032.482500",
          "153034.992500",
          "153037.502500",
          "153040.012500",
          "153042.522500",
          "153045.032500",
          "153047.542500",
          "153050.052500",
          "153052.562500",
          "153055.072500",
          "153057.582500",
          "153100.092500",
          "153102.602500"
        ],
        "ContentTime": [
          "152415.750000",
          "152418.250000",
          "152420.750000",
          "152423.250000",
          "152425.750000",
          "152428.250000",
          "152430.750000",
          "152433.250000",
          "152435.750000",
          "152438.250000",
          "152440.750000",
          "152443.250000",
          "152445.750000",
          "152448.250000",
          "152450.750000",
          "152453.250000",
          "152455.750000",
          "152458.250000",
          "152500.750000",
          "152503.250000",
          "152505.750000",
          "152508.250000",
          "152510.750000",
          "152513.250000",
          "152515.750000",
          "152518.250000",
          "152520.750000",
          "152523.250000",
          "152525.750000",
          "152528.250000",
          "152530.750000",
          "152533.250000",
          "152535.750000",
          "152538.250000",
          "152540.750000",
          "152543.250000",
          "152545.750000",
          "152548.250000",
          "152550.750000",
          "152553.250000",
          "152555.750000",
          "152558.250000",
          "152600.750000",
          "152603.250000",
          "152605.750000",
          "152608.250000",
          "152610.750000",
          "152613.250000",
          "152615.750000",
          "152618.250000",
          "152620.750000",
          "152623.250000",
          "152625.750000",
          "152628.250000",
          "152630.750000",
          "152633.250000",
          "152635.750000",
          "152638.250000",
          "152640.750000",
          "152643.250000",
          "152645.750000",
          "152648.250000",
          "152650.750000",
          "152653.250000",
          "152655.750000",
          "152658.250000",
          "152700.750000",
          "152703.250000",
          "152705.750000",
          "152708.250000",
          "152710.750000",
          "152713.250000",
          "152715.750000",
          "152718.250000",
          "152720.750000",
          "152723.250000",
          "152725.750000",
          "152728.250000",
          "152730.750000",
          "152733.250000",
          "152735.750000",
          "152738.250000",
          "152740.750000",
          "152743.250000",
          "152745.750000",
          "152748.250000",
          "152750.750000",
          "152753.250000",
          "152755.750000",
          "152758.250000",
          "152800.750000",
          "152803.250000",
          "152805.750000",
          "152808.250000",
          "152810.750000",
          "152813.250000",
          "152815.750000",
          "152818.250000",
          "152820.750000",
          "152823.250000",
          "152825.750000",
          "152828.250000",
          "152830.750000",
          "152833.250000",
          "152835.750000",
          "152838.250000",
          "152840.750000",
          "152843.250000",
          "152845.750000",
          "152848.250000",
          "152850.750000",
          "152853.250000",
          "152855.750000",
          "152858.250000",
          "152900.750000",
          "152903.250000",
          "152905.750000",
          "152908.250000",
          "152910.750000",
          "152913.250000",
          "152915.750000",
          "152918.250000",
          "152920.750000",
          "152923.250000",
          "152925.750000",
          "152928.250000",
          "152930.750000",
          "152933.250000",
          "152935.750000",
          "152938.250000",
          "152940.750000",
          "152943.250000",
          "152945.750000",
          "152948.250000",
          "152950.750000",
          "152953.250000",
          "152955.750000",
          "152958.250000",
          "153000.750000",
          "153003.250000",
          "153005.750000",
          "153008.250000",
          "153010.750000",
          "153013.250000",
          "153015.750000",
          "153018.250000",
          "153020.750000",
          "153023.250000",
          "153025.750000",
          "153028.250000",
          "153030.750000",
          "153033.250000",
          "153035.750000",
          "153038.250000",
          "153040.750000",
          "153043.250000",
          "153045.750000",
          "153048.250000",
          "153050.750000",
          "153053.250000",
          "153055.750000",
          "153058.250000",
          "153100.750000",
          "153102.968000"
        ],
        "InstanceCreationTime": [
          "152415.750000",
          "152418.250000",
          "152420.750000",
          "152423.250000",
          "152425.750000",
          "152428.250000",
          "152430.750000",
          "152433.250000",
          "152435.750000",
          "152438.250000",
          "152440.750000",
          "152443.250000",
          "152445.750000",
          "152448.250000",
          "152450.750000",
          "152453.250000",
          "152455.750000",
          "152458.250000",
          "152500.750000",
          "152503.250000",
          "152505.750000",
          "152508.250000",
          "152510.750000",
          "152513.250000",
          "152515.750000",
          "152518.250000",
          "152520.750000",
          "152523.250000",
          "152525.750000",
          "152528.250000",
          "152530.750000",
          "152533.250000",
          "152535.750000",
          "152538.250000",
          "152540.750000",
          "152543.250000",
          "152545.750000",
          "152548.250000",
          "152550.750000",
          "152553.250000",
          "152555.750000",
          "152558.250000",
          "152600.750000",
          "152603.250000",
          "152605.750000",
          "152608.250000",
          "152610.750000",
          "152613.250000",
          "152615.750000",
          "152618.250000",
          "152620.750000",
          "152623.250000",
          "152625.750000",
          "152628.250000",
          "152630.750000",
          "152633.250000",
          "152635.750000",
          "152638.250000",
          "152640.750000",
          "152643.250000",
          "152645.750000",
          "152648.250000",
          "152650.750000",
          "152653.250000",
          "152655.750000",
          "152658.250000",
          "152700.750000",
          "152703.250000",
          "152705.750000",
          "152708.250000",
          "152710.750000",
          "152713.250000",
          "152715.750000",
          "152718.250000",
          "152720.750000",
          "152723.250000",
          "152725.750000",
          "152728.250000",
          "152730.750000",
          "152733.250000",
          "152735.750000",
          "152738.250000",
          "152740.750000",
          "152743.250000",
          "152745.750000",
          "152748.250000",
          "152750.750000",
          "152753.250000",
          "152755.750000",
          "152758.250000",
          "152800.750000",
          "152803.250000",
          "152805.750000",
          "152808.250000",
          "152810.750000",
          "152813.250000",
          "152815.750000",
          "152818.250000",
          "152820.750000",
          "152823.250000",
          "152825.750000",
          "152828.250000",
          "152830.750000",
          "152833.250000",
          "152835.750000",
          "152838.250000",
          "152840.750000",
          "152843.250000",
          "152845.750000",
          "152848.250000",
          "152850.750000",
          "152853.250000",
          "152855.750000",
          "152858.250000",
          "152900.750000",
          "152903.250000",
          "152905.750000",
          "152908.250000",
          "152910.750000",
          "152913.250000",
          "152915.750000",
          "152918.250000",
          "152920.750000",
          "152923.250000",
          "152925.750000",
          "152928.250000",
          "152930.750000",
          "152933.250000",
          "152935.750000",
          "152938.250000",
          "152940.750000",
          "152943.250000",
          "152945.750000",
          "152948.250000",
          "152950.750000",
          "152953.250000",
          "152955.750000",
          "152958.250000",
          "153000.750000",
          "153003.250000",
          "153005.750000",
          "153008.250000",
          "153010.750000",
          "153013.250000",
          "153015.750000",
          "153018.250000",
          "153020.750000",
          "153023.250000",
          "153025.750000",
          "153028.250000",
          "153030.750000",
          "153033.250000",
          "153035.750000",
          "153038.250000",
          "153040.750000",
          "153043.250000",
          "153045.750000",
          "153048.250000",
          "153050.750000",
          "153053.250000",
          "153055.750000",
          "153058.250000",
          "153100.750000",
          "153102.968000"
        ],
        "InstanceNumber": [
          1,
          2,
          3,
          4,
          5,
          6,
          7,
          8,
          9,
          10,
          11,
          12,
          13,
          14,
          15,
          16,
          17,
          18,
          19,
          20,
          21,
          22,
          23,
          24,
          25,
          26,
          27,
          28,
          29,
          30,
          31,
          32,
          33,
          34,
          35,
          36,
          37,
          38,
          39,
          40,
          41,
          42,
          43,
          44,
          45,
          46,
          47,
          48,
          49,
          50,
          51,
          52,
          53,
          54,
          55,
          56,
          57,
          58,
          59,
          60,
          61,
          62,
          63,
          64,
          65,
          66,
          67,
          68,
          69,
          70,
          71,
          72,
          73,
          74,
          75,
          76,
          77,
          78,
          79,
          80,
          81,
          82,
          83,
          84,
          85,
          86,
          87,
          88,
          89,
          90,
          91,
          92,
          93,
          94,
          95,
          96,
          97,
          98,
          99,
          100,
          101,
          102,
          103,
          104,
          105,
          106,
          107,
          108,
          109,
          110,
          111,
          112,
          113,
          114,
          115,
          116,
          117,
          118,
          119,
          120,
          121,
          122,
          123,
          124,
          125,
          126,
          127,
          128,
          129,
          130,
          131,
          132,
          133,
          134,
          135,
          136,
          137,
          138,
          139,
          140,
          141,
          142,
          143,
          144,
          145,
          146,
          147,
          148,
          149,
          150,
          151,
          152,
          153,
          154,
          155,
          156,
          157,
          158,
          159,
          160,
          161,
          162,
          163,
          164
        ],
        "LargestImagePixelValue": [
          1399,
          1361,
          1208,
          1315,
          1268,
          1376,
          1216,
          1192,
          1237,
          1331,
          1256,
          1269,
          1211,
          1200,
          1278,
          1191,
          1302,
          1238,
          1222,
          1245,
          1303,
          1283,
          1293,
          1371,
          1361,
          1245,
          1250,
          1209,
          1264,
          1194,
          1259,
          1232,
          1228,
          1204,
          1219,
          1333,
          1231,
          1239,
          1265,
          1211,
          1261,
          1254,
          1258,
          1252,
          1253,
          1239,
          1234,
          1269,
          1260,
          1320,
          1403,
          1210,
          1277,
          1249,
          1208,
          1238,
          1196,
          1266,
          1326,
          1283,
          1355,
          1300,
          1281,
          1233,
          1222,
          1236,
          1232,
          1213,
          1210,
          1217,
          1222,
          1217,
          1216,
          1229,
          1314,
          1427,
          1225,
          1232,
          1209,
          1272,
          1210,
          1261,
          1307,
          1468,
          1286,
          1202,
          1198,
          1250,
          1445,
          1259,
          1230,
          1217,
          1319,
          1242,
          1228,
          1303,
          1249,
          1244,
          1231,
          1363,
          1261,
          1219,
          1395,
          1253,
          1221,
          1232,
          1332,
          1377,
          1335,
          1316,
          1205,
          1275,
          1352,
          1453,
          1279,
          1393,
          1223,
          1327,
          1369,
          1235,
          1251,
          1375,
          1203,
          1431,
          1339,
          1306,
          1326,
          1411,
          1284,
          1249,
          1293,
          1357,
          1313,
          1275,
          1390,
          1275,
          1225,
          1401,
          1436,
          1359,
          1385,
          1465,
          1398,
          1434,
          1240,
          1237,
          1354,
          1280,
          1286,
          1225,
          1225,
          1253,
          1316,
          1459,
          1363,
          1434,
          1202,
          1225,
          1272,
          1456,
          1266,
          1232,
          1295,
          1270
        ],
        "WindowCenter": [
          611.0,
          610.0,
          609.0,
          610.0,
          609.0,
          609.0,
          609.0,
          605.0,
          608.0,
          610.0,
          609.0,
          609.0,
          607.0,
          605.0,
          608.0,
          607.0,
          608.0,
          606.0,
          610.0,
          610.0,
          610.0,
          607.0,
          608.0,
          606.0,
          606.0,
          606.0,
          609.0,
          606.0,
          610.0,
          606.0,
          606.0,
          610.0,
          607.0,
          611.0,
          606.0,
          607.0,
          596.0,
          597.0,
          607.0,
          605.0,
          604.0,
          606.0,
          606.0,
          606.0,
          604.0,
          604.0,
          609.0,
          606.0,
          605.0,
          607.0,
          607.0,
          605.0,
          604.0,
          603.0,
          604.0,
          608.0,
          605.0,
          607.0,
          606.0,
          606.0,
          610.0,
          608.0,
          606.0,
          605.0,
          605.0,
          608.0,
          605.0,
          610.0,
          606.0,
          606.0,
          607.0,
          607.0,
          610.0,
          607.0,
          605.0,
          606.0,
          609.0,
          605.0,
          610.0,
          610.0,
          609.0,
          610.0,
          606.0,
          605.0,
          606.0,
          605.0,
          606.0,
          606.0,
          611.0,
          609.0,
          608.0,
          610.0,
          610.0,
          605.0,
          606.0,
          607.0,
          606.0,
          606.0,
          610.0,
          607.0,
          609.0,
          605.0,
          606.0,
          605.0,
          605.0,
          605.0,
          607.0,
          610.0,
          609.0,
          609.0,
          610.0,
          610.0,
          607.0,
          611.0,
          607.0,
          607.0,
          607.0,
          607.0,
          607.0,
          607.0,
          607.0,
          610.0,
          608.0,
          607.0,
          610.0,
          606.0,
          611.0,
          607.0,
          609.0,
          607.0,
          606.0,
          610.0,
          606.0,
          610.0,
          606.0,
          606.0,
          607.0,
          610.0,
          608.0,
          607.0,
          607.0,
          608.0,
          607.0,
          610.0,
          606.0,
          605.0,
          607.0,
          606.0,
          606.0,
          606.0,
