{
  "aor": 0.004199329268292683,
  "aqi": 0.004579611280487805,
  "bids_meta": {
    "AcquisitionMatrixPE": 64,
    "AcquisitionNumber": 1,
    "AcquisitionTime": "09:41:31.047500",
    "BandwidthPerPixelPhaseEncode": 26.483,
    "BaseResolution": 64,
    "BodyPartExamined": "HEAD",
    "CogAtlasID": "TODO",
    "ConversionSoftware": "dcm2niix",
    "ConversionSoftwareVersion": "v1.0.20171017 GCC6.3.0",
    "DerivedVendorReportedEchoSpacing": 0.000590001,
    "DeviceSerialNumber": "35177",
    "DwellTime": 4.1e-06,
    "EchoTime": 0.027,
    "EffectiveEchoSpacing": 0.000590001,
    "FlipAngle": 90,
    "ImageOrientationPatientDICOM": [
      0.999462,
      -0.000624351,
      -0.0327962,
      0.00397798,
      0.994747,
      0.102292
    ],
    "ImageType": [
      "ORIGINAL",
      "PRIMARY",
      "M",
      "ND",
      "NORM",
      "MOSAIC"
    ],
    "InPlanePhaseEncodingDirectionDICOM": "COL",
    "InstitutionAddress": "Scott_Ave._4525_St._Louis_MO_US_63110",
    "InstitutionName": "Washington_University",
    "InstitutionalDepartmentName": "Department",
    "MRAcquisitionType": "2D",
    "MagneticFieldStrength": 3,
    "Manufacturer": "Siemens",
    "ManufacturersModelName": "TrioTim",
    "Modality": "MR",
    "PartialFourier": 1,
    "PatientPosition": "HFS",
    "PercentPhaseFOV": 100,
    "PhaseEncodingDirection": "j-",
    "PhaseEncodingSteps": 64,
    "PhaseResolution": 1,
    "PixelBandwidth": 1905,
    "ProcedureStepDescription": "head_GREENE",
    "ProtocolName": "ep2d_bold_rest1",
    "PulseSequenceDetails": "%SiemensSeq%_ep2d_bold",
    "ReceiveCoilName": "HeadMatrix",
    "ReconMatrixPE": 64,
    "RepetitionTime": 2.5,
    "SAR": 0.139755,
    "ScanOptions": "FS",
    "ScanningSequence": "EP",
    "SequenceName": "_epfid2d1_64",
    "SequenceVariant": "SK",
    "SeriesDescription": "ep2d_bold_rest1",
    "SeriesNumber": 5,
    "ShimSetting": [
      -250,
      -19654,
      7962,
      97,
      61,
      -423,
      -82,
      127
    ],
    "SliceThickness": 4,
    "SliceTiming": [
      1.255,
      0,
      1.3325,
      0.0775,
      1.4125,
      0.1575,
      1.49,
      0.235,
      1.57,
      0.315,
      1.6475,
      0.3925,
      1.725,
      0.47,
      1.805,
      0.55,
      1.8825,
      0.6275,
      1.96,
      0.705,
      2.04,
      0.785,
      2.1175,
      0.8625,
      2.195,
      0.9425,
      2.275,
      1.02,
      2.3525,
      1.0975,
      2.4325,
      1.1775
    ],
    "SoftwareVersions": "syngo_MR_B17",
    "SpacingBetweenSlices": 4,
    "StationName": "MRC35177",
    "TaskName": "restbaseline",
    "TotalReadoutTime": 0.0371701,
    "TxRefAmp": 318.717,
    "dataset": "ds000256",
    "dcmmeta_affine": [
      [
        -3.997847557067871,
        0.01591193862259388,
        -0.13024021685123444,
        126.95643615722656
      ],
      [
        0.0024974020197987556,
        3.9789860248565674,
        0.40946781635284424,
        -128.20947265625
      ],
      [
        -0.13118481636047363,
        -0.4091660678386688,
        3.976855754852295,
        0.2603847086429596
      ],
      [
        0.0,
        0.0,
        0.0,
        1.0
      ]
    ],
    "dcmmeta_reorient_transform": [
      [
        0.0,
        -1.0,
        0.0,
        63.0
      ],
      [
        1.0,
        0.0,
        0.0,
        0.0
      ],
      [
        0.0,
        0.0,
        1.0,
        0.0
      ],
      [
        0.0,
        0.0,
        0.0,
        1.0
      ]
    ],
    "dcmmeta_shape": [
      64,
      64,
      32,
      164
    ],
    "dcmmeta_slice_dim": 2,
    "dcmmeta_version": 0.6,
    "global": {
      "const": {
        "AccessionNumber": ".",
        "AcquisitionMatrix": [
          64,
          0,
          0,
          64
        ],
        "AngioFlag": "N",
        "BitsAllocated": 16,
        "BitsStored": 12,
        "BodyPartExamined": "HEAD",
        "Columns": 384,
        "DeidentificationMethodCodeSequence": [
          {
            "CodeMeaning": "XNAT Edit Script",
            "CodeValue": "625500",
            "CodingSchemeDesignator": "XNAT",
            "CodingSchemeVersion": "0.1"
          }
        ],
        "EchoNumbers": 1,
        "EchoTime": 27.0,
        "EchoTrainLength": 1,
        "FlipAngle": 90.0,
        "HighBit": 11,
        "ImageOrientationPatient": [
          0.99946186474609,
          -0.000624350529,
          -0.0327962056446,
          0.00397798474441,
          0.99474651129368,
          0.1022915143422
        ],
        "ImagePositionPatient": [
          -770.16039575306,
          -758.70483697295,
          -69.994074478437
        ],
        "ImageType": [
          "ORIGINAL",
          "PRIMARY",
          "M",
          "ND",
          "NORM",
          "MOSAIC"
        ],
        "ImagedNucleus": "1H",
        "ImagingFrequency": 123.255923,
        "InPlanePhaseEncodingDirection": "COL",
        "MRAcquisitionType": "2D",
        "MagneticFieldStrength": 3.0,
        "Manufacturer": "SIEMENS",
        "ManufacturerModelName": "TrioTim",
        "Modality": "MR",
        "NumberOfAverages": 1.0,
        "NumberOfPhaseEncodingSteps": 64,
        "PercentPhaseFieldOfView": 100.0,
        "PercentSampling": 100.0,
        "PerformedProcedureStepStartTime": "093637.203000",
        "PhotometricInterpretation": "MONOCHROME2",
        "PixelBandwidth": 1905.0,
        "PixelRepresentation": 0,
        "PixelSpacing": [
          4.0,
          4.0
        ],
        "PositionReferenceIndicator": "",
        "ProtocolName": "ep2d_bold_rest1",
        "RepetitionTime": 2500.0,
        "Rows": 384,
        "SAR": 0.13975510996661,
        "SamplesPerPixel": 1,
        "ScanOptions": "FS",
        "ScanningSequence": "EP",
        "SequenceName": "*epfid2d1_64",
        "SequenceVariant": "SK",
        "SeriesDescription": "ep2d_bold_rest1",
        "SeriesNumber": 5,
        "SeriesTime": "094133.765000",
        "SliceLocation": -16.999238982018,
        "SliceThickness": 4.0,
        "SmallestImagePixelValue": 0,
        "SoftwareVersions": "syngo MR B17",
        "SpacingBetweenSlices": 4.0000009950011,
        "SpecificCharacterSet": "ISO_IR 100",
        "StudyID": "1",
        "StudyTime": "093637.062000",
        "TransmitCoilName": "Body",
        "VariableFlipAngleFlag": "N",
        "WindowCenterWidthExplanation": "Algo1",
        "dBdt": 0.0
      },
      "slices": {}
    },
    "modality": "bold",
    "subject_id": "CTS219",
    "task_id": "restbaseline",
    "time": {
      "samples": {
        "AcquisitionNumber": [
          1,
          2,
          3,
          4,
          5,
          6,
          7,
          8,
          9,
          10,
          11,
          12,
          13,
          14,
          15,
          16,
          17,
          18,
          19,
          20,
          21,
          22,
          23,
          24,
          25,
          26,
          27,
          28,
          29,
          30,
          31,
          32,
          33,
          34,
          35,
          36,
          37,
          38,
          39,
          40,
          41,
          42,
          43,
          44,
          45,
          46,
          47,
          48,
          49,
          50,
          51,
          52,
          53,
          54,
          55,
          56,
          57,
          58,
          59,
          60,
          61,
          62,
          63,
          64,
          65,
          66,
          67,
          68,
          69,
          70,
          71,
          72,
          73,
          74,
          75,
          76,
          77,
          78,
          79,
          80,
          81,
          82,
          83,
          84,
          85,
          86,
          87,
          88,
          89,
          90,
          91,
          92,
          93,
          94,
          95,
          96,
          97,
          98,
          99,
          100,
          101,
          102,
          103,
          104,
          105,
          106,
          107,
          108,
          109,
          110,
          111,
          112,
          113,
          114,
          115,
          116,
          117,
          118,
          119,
          120,
          121,
          122,
          123,
          124,
          125,
          126,
          127,
          128,
          129,
          130,
          131,
          132,
          133,
          134,
          135,
          136,
          137,
          138,
          139,
          140,
          141,
          142,
          143,
          144,
          145,
          146,
          147,
          148,
          149,
          150,
          151,
          152,
          153,
          154,
          155,
          156,
          157,
          158,
          159,
          160,
          161,
          162,
          163,
          164
        ],
        "AcquisitionTime": [
          "094131.047500",
          "094133.557500",
          "094136.067500",
          "094138.577500",
          "094141.087500",
          "094143.597500",
          "094146.107500",
          "094148.617500",
          "094151.127500",
          "094153.637500",
          "094156.147500",
          "094158.657500",
          "094201.167500",
          "094203.677500",
          "094206.187500",
          "094208.697500",
          "094211.207500",
          "094213.717500",
          "094216.227500",
          "094218.737500",
          "094221.247500",
          "094223.757500",
          "094226.267500",
          "094228.777500",
          "094231.287500",
          "094233.797500",
          "094236.307500",
          "094238.817500",
          "094241.327500",
          "094243.837500",
          "094246.350000",
          "094248.860000",
          "094251.370000",
          "094253.880000",
          "094256.390000",
          "094258.900000",
          "094301.410000",
          "094303.920000",
          "094306.430000",
          "094308.940000",
          "094311.450000",
          "094313.960000",
          "094316.470000",
          "094318.980000",
          "094321.490000",
          "094324.000000",
          "094326.510000",
          "094329.020000",
          "094331.530000",
          "094334.040000",
          "094336.550000",
          "094339.060000",
          "094341.570000",
          "094344.080000",
          "094346.590000",
          "094349.100000",
          "094351.610000",
          "094354.120000",
          "094356.630000",
          "094359.140000",
          "094401.650000",
          "094404.160000",
          "094406.670000",
          "094409.180000",
          "094411.690000",
          "094414.200000",
          "094416.710000",
          "094419.220000",
          "094421.730000",
          "094424.240000",
          "094426.750000",
          "094429.260000",
          "094431.770000",
          "094434.280000",
          "094436.790000",
          "094439.300000",
          "094441.810000",
          "094444.320000",
          "094446.830000",
          "094449.340000",
          "094451.850000",
          "094454.360000",
          "094456.870000",
          "094459.380000",
          "094501.890000",
          "094504.400000",
          "094506.910000",
          "094509.420000",
          "094511.930000",
          "094514.440000",
          "094516.950000",
          "094519.460000",
          "094521.972500",
          "094524.482500",
          "094526.992500",
          "094529.502500",
          "094532.012500",
          "094534.522500",
          "094537.032500",
          "094539.542500",
          "094542.052500",
          "094544.562500",
          "094547.072500",
          "094549.582500",
          "094552.092500",
          "094554.602500",
          "094557.112500",
          "094559.622500",
          "094602.132500",
          "094604.642500",
          "094607.152500",
          "094609.662500",
          "094612.172500",
          "094614.682500",
          "094617.192500",
          "094619.702500",
          "094622.212500",
          "094624.722500",
          "094627.232500",
          "094629.742500",
          "094632.252500",
          "094634.762500",
          "094637.272500",
          "094639.782500",
          "094642.292500",
          "094644.802500",
          "094647.312500",
          "094649.822500",
          "094652.332500",
          "094654.842500",
          "094657.352500",
          "094659.862500",
          "094702.372500",
          "094704.882500",
          "094707.392500",
          "094709.902500",
          "094712.412500",
          "094714.922500",
          "094717.432500",
          "094719.942500",
          "094722.452500",
          "094724.962500",
          "094727.472500",
          "094729.982500",
          "094732.492500",
          "094735.002500",
          "094737.512500",
          "094740.022500",
          "094742.532500",
          "094745.042500",
          "094747.552500",
          "094750.062500",
          "094752.572500",
          "094755.082500",
          "094757.595000",
          "094800.105000",
          "094802.615000",
          "094805.125000",
          "094807.635000",
          "094810.145000",
          "094812.655000",
          "094815.165000",
          "094817.675000",
          "094820.185000"
        ],
        "ContentTime": [
          "094133.765000",
          "094136.265000",
          "094138.765000",
          "094141.265000",
          "094143.765000",
          "094146.265000",
          "094148.765000",
          "094151.265000",
          "094153.765000",
          "094156.265000",
          "094158.765000",
          "094201.265000",
          "094203.765000",
          "094206.265000",
          "094208.765000",
          "094211.265000",
          "094213.765000",
          "094216.265000",
          "094218.765000",
          "094221.265000",
          "094223.765000",
          "094226.265000",
          "094228.765000",
          "094231.265000",
          "094233.765000",
          "094236.265000",
          "094238.765000",
          "094241.265000",
          "094243.765000",
          "094246.265000",
          "094248.765000",
          "094251.265000",
          "094253.765000",
          "094256.265000",
          "094258.765000",
          "094301.265000",
          "094303.765000",
          "094306.265000",
          "094308.765000",
          "094311.265000",
          "094313.765000",
          "094316.265000",
          "094318.765000",
          "094321.265000",
          "094323.765000",
          "094326.265000",
          "094328.765000",
          "094331.265000",
          "094333.765000",
          "094336.265000",
          "094338.765000",
          "094341.265000",
          "094343.765000",
          "094346.265000",
          "094348.765000",
          "094351.265000",
          "094353.765000",
          "094356.265000",
          "094358.765000",
          "094401.265000",
          "094403.765000",
          "094406.265000",
          "094408.765000",
          "094411.265000",
          "094413.765000",
          "094416.265000",
          "094418.765000",
          "094421.265000",
          "094423.765000",
          "094426.265000",
          "094428.765000",
          "094431.265000",
          "094433.765000",
          "094436.265000",
          "094438.765000",
          "094441.265000",
          "094443.765000",
          "094446.265000",
          "094448.765000",
          "094451.265000",
          "094453.765000",
          "094456.265000",
          "094458.765000",
          "094501.265000",
          "094503.765000",
          "094506.265000",
          "094508.765000",
          "094511.265000",
          "094513.765000",
          "094516.265000",
          "094518.765000",
          "094521.265000",
          "094523.765000",
          "094526.265000",
          "094528.765000",
          "094531.265000",
          "094533.765000",
          "094536.265000",
          "094538.765000",
          "094541.265000",
          "094543.765000",
          "094546.265000",
          "094548.765000",
          "094551.265000",
          "094553.765000",
          "094556.265000",
          "094558.765000",
          "094601.265000",
          "094603.765000",
          "094606.265000",
          "094608.765000",
          "094611.265000",
          "094613.765000",
          "094616.265000",
          "094618.765000",
          "094621.265000",
          "094623.765000",
          "094626.265000",
          "094628.765000",
          "094631.265000",
          "094633.765000",
          "094636.265000",
          "094638.765000",
          "094641.265000",
          "094643.765000",
          "094646.265000",
          "094648.765000",
          "094651.265000",
          "094653.765000",
          "094656.265000",
          "094658.765000",
          "094701.265000",
          "094703.765000",
          "094706.265000",
          "094708.765000",
          "094711.265000",
          "094713.765000",
          "094716.265000",
          "094718.765000",
          "094721.265000",
          "094723.765000",
          "094726.265000",
          "094728.765000",
          "094731.265000",
          "094733.765000",
          "094736.265000",
          "094738.765000",
          "094741.265000",
          "094743.765000",
          "094746.265000",
          "094748.765000",
          "094751.265000",
          "094753.765000",
          "094756.265000",
          "094758.765000",
          "094801.265000",
          "094803.765000",
          "094806.265000",
          "094808.765000",
          "094811.265000",
          "094813.781000",
          "094816.265000",
          "094818.765000",
          "094820.890000"
        ],
        "InstanceCreationTime": [
          "094133.765000",
          "094136.265000",
          "094138.765000",
          "094141.265000",
          "094143.765000",
          "094146.265000",
          "094148.765000",
          "094151.265000",
          "094153.765000",
          "094156.265000",
          "094158.765000",
          "094201.265000",
          "094203.765000",
          "094206.265000",
          "094208.765000",
          "094211.265000",
          "094213.765000",
          "094216.265000",
          "094218.765000",
          "094221.265000",
          "094223.765000",
          "094226.265000",
          "094228.765000",
          "094231.265000",
          "094233.765000",
          "094236.265000",
          "094238.765000",
          "094241.265000",
          "094243.765000",
          "094246.265000",
          "094248.765000",
          "094251.265000",
          "094253.765000",
          "094256.265000",
          "094258.765000",
          "094301.265000",
          "094303.765000",
          "094306.265000",
          "094308.765000",
          "094311.265000",
          "094313.765000",
          "094316.265000",
          "094318.765000",
          "094321.265000",
          "094323.765000",
          "094326.265000",
          "094328.765000",
          "094331.265000",
          "094333.765000",
          "094336.265000",
          "094338.765000",
          "094341.265000",
          "094343.765000",
          "094346.265000",
          "094348.765000",
          "094351.265000",
          "094353.765000",
          "094356.265000",
          "094358.765000",
          "094401.265000",
          "094403.765000",
          "094406.265000",
          "094408.765000",
          "094411.265000",
          "094413.765000",
          "094416.265000",
          "094418.765000",
          "094421.265000",
          "094423.765000",
          "094426.265000",
          "094428.765000",
          "094431.265000",
          "094433.765000",
          "094436.265000",
          "094438.765000",
          "094441.265000",
          "094443.765000",
          "094446.265000",
          "094448.765000",
          "094451.265000",
          "094453.765000",
          "094456.265000",
          "094458.765000",
          "094501.265000",
          "094503.765000",
          "094506.265000",
          "094508.765000",
          "094511.265000",
          "094513.765000",
          "094516.265000",
          "094518.765000",
          "094521.265000",
          "094523.765000",
          "094526.265000",
          "094528.765000",
          "094531.265000",
          "094533.765000",
          "094536.265000",
          "094538.765000",
          "094541.265000",
          "094543.765000",
          "094546.265000",
          "094548.765000",
          "094551.265000",
          "094553.765000",
          "094556.265000",
          "094558.765000",
          "094601.265000",
          "094603.765000",
          "094606.265000",
          "094608.765000",
          "094611.265000",
          "094613.765000",
          "094616.265000",
          "094618.765000",
          "094621.265000",
          "094623.765000",
          "094626.265000",
          "094628.765000",
          "094631.265000",
          "094633.765000",
          "094636.265000",
          "094638.765000",
          "094641.265000",
          "094643.765000",
          "094646.265000",
          "094648.765000",
          "094651.265000",
          "094653.765000",
          "094656.265000",
          "094658.765000",
          "094701.265000",
          "094703.765000",
          "094706.265000",
          "094708.765000",
          "094711.265000",
          "094713.765000",
          "094716.265000",
          "094718.765000",
          "094721.265000",
          "094723.765000",
          "094726.265000",
          "094728.765000",
          "094731.265000",
          "094733.765000",
          "094736.265000",
          "094738.765000",
          "094741.265000",
          "094743.765000",
          "094746.265000",
          "094748.765000",
          "094751.265000",
          "094753.765000",
          "094756.265000",
          "094758.765000",
          "094801.265000",
          "094803.765000",
          "094806.265000",
          "094808.765000",
          "094811.265000",
          "094813.781000",
          "094816.265000",
          "094818.765000",
          "094820.890000"
        ],
        "InstanceNumber": [
          1,
          2,
          3,
          4,
          5,
          6,
          7,
          8,
          9,
          10,
          11,
          12,
          13,
          14,
          15,
          16,
          17,
          18,
          19,
          20,
          21,
          22,
          23,
          24,
          25,
          26,
          27,
          28,
          29,
          30,
          31,
          32,
          33,
          34,
          35,
          36,
          37,
          38,
          39,
          40,
          41,
          42,
          43,
          44,
          45,
          46,
          47,
          48,
          49,
          50,
          51,
          52,
          53,
          54,
          55,
          56,
          57,
          58,
          59,
          60,
          61,
          62,
          63,
          64,
          65,
          66,
          67,
          68,
          69,
          70,
          71,
          72,
          73,
          74,
          75,
          76,
          77,
          78,
          79,
          80,
          81,
          82,
          83,
          84,
          85,
          86,
          87,
          88,
          89,
          90,
          91,
          92,
          93,
          94,
          95,
          96,
          97,
          98,
          99,
          100,
          101,
          102,
          103,
          104,
          105,
          106,
          107,
          108,
          109,
          110,
          111,
          112,
          113,
          114,
          115,
          116,
          117,
          118,
          119,
          120,
          121,
          122,
          123,
          124,
          125,
          126,
          127,
          128,
          129,
          130,
          131,
          132,
          133,
          134,
          135,
          136,
          137,
          138,
          139,
          140,
          141,
          142,
          143,
          144,
          145,
          146,
          147,
          148,
          149,
          150,
          151,
          152,
          153,
          154,
          155,
          156,
          157,
          158,
          159,
          160,
          161,
          162,
          163,
          164
        ],
        "LargestImagePixelValue": [
          1197,
          1423,
          1171,
          1338,
          1197,
          1278,
          1189,
          1199,
          1213,
          1209,
          1244,
          1141,
          1133,
          1164,
          1285,
          1135,
          1482,
          1182,
          1154,
          1297,
          1149,
          1220,
          1235,
          1128,
          1225,
          1146,
          1373,
          1281,
          1219,
          1142,
          1434,
          1263,
          1171,
          1185,
          1276,
          1157,
          1207,
          1296,
          1322,
          1151,
          1181,
          1399,
          1216,
          1206,
          1274,
          1205,
          1249,
          1220,
          1503,
          1148,
          1355,
          1208,
          1189,
          1314,
          1407,
          1305,
          1180,
          1218,
          1261,
          1310,
          1223,
          1192,
          1192,
          1360,
          1552,
          1289,
          1174,
          1156,
          1212,
          1375,
          1200,
          1223,
          1211,
          1489,
          1280,
          1246,
          1174,
          1298,
          1427,
          1223,
          1229,
          1164,
          1220,
          1504,
          1245,
          1162,
          1148,
          1262,
          1257,
          1180,
          1208,
          1400,
          1278,
          1209,
          1276,
          1408,
          1150,
          1188,
          1240,
          1391,
          1166,
          1198,
          1319,
          1442,
          1245,
          1187,
          1240,
          1336,
          1410,
          1175,
          1641,
          1165,
          1661,
          1188,
          1133,
          1295,
          1265,
          1220,
          1395,
          1392,
          1295,
          1291,
          1307,
          1298,
          1334,
          1398,
          1254,
          1224,
          1549,
          1225,
          1196,
          1313,
          1156,
          1205,
          1537,
          1223,
          1192,
          1700,
          1319,
          1343,
          1688,
          1268,
          1164,
          1523,
          1264,
          1184,
          1384,
          1239,
          1225,
          1164,
          1178,
          1275,
          1413,
          1600,
          1258,
          1274,
          1174,
          1169,
          1187,
          1355,
          1397,
          1607,
          1309,
          1268
        ],
        "WindowCenter": [
          566.0,
          567.0,
          564.0,
          565.0,
          565.0,
          565.0,
          564.0,
          566.0,
          566.0,
          564.0,
          565.0,
          565.0,
          563.0,
          564.0,
          566.0,
          566.0,
          565.0,
          562.0,
          562.0,
          564.0,
          564.0,
          564.0,
          564.0,
          564.0,
          563.0,
          564.0,
          565.0,
          564.0,
          564.0,
          563.0,
          566.0,
          564.0,
          565.0,
          565.0,
          565.0,
          563.0,
          563.0,
          565.0,
          564.0,
          563.0,
          564.0,
          566.0,
          565.0,
          565.0,
          566.0,
          564.0,
          566.0,
          564.0,
          566.0,
          565.0,
          565.0,
          563.0,
          564.0,
          565.0,
          565.0,
          565.0,
          563.0,
          564.0,
          564.0,
          564.0,
          564.0,
          565.0,
          564.0,
          564.0,
          571.0,
          565.0,
          563.0,
          564.0,
          564.0,
          565.0,
          563.0,
          565.0,
          565.0,
          566.0,
          565.0,
          565.0,
          563.0,
          563.0,
          565.0,
          565.0,
          564.0,
          563.0,
          564.0,
          567.0,
          564.0,
          564.0,
          563.0,
          564.0,
          564.0,
          565.0,
          565.0,
          566.0,
          566.0,
          566.0,
          564.0,
          566.0,
          563.0,
          564.0,
          564.0,
          564.0,
          564.0,
          564.0,
          564.0,
          569.0,
          564.0,
          564.0,
          565.0,
          564.0,
          565.0,
          564.0,
          567.0,
          563.0,
          566.0,
          561.0,
          562.0,
          565.0,
          564.0,
          564.0,
          566.0,
          566.0,
          565.0,
          566.0,
          565.0,
          565.0,
          565.0,
          566.0,
          566.0,
          566.0,
          567.0,
          564.0,
          564.0,
          565.0,
          564.0,
          565.0,
          567.0,
          564.0,
          565.0,
          568.0,
          565.0,
          566.0,
          568.0,
          565.0,
          565.0,
          568.0,
          565.0,
          565.0,
          566.0,
          566.0,
          567.0,
          564.0,
          566.0,
