{
  "aor": 0.013863865030674846,
  "aqi": 0.021728418957055212,
  "bids_meta": {
    "AcquisitionMatrixPE": 64,
    "AcquisitionNumber": 1,
    "AcquisitionTime": "16:33:23.962500",
    "BandwidthPerPixelPhaseEncode": 26.483,
    "BaseResolution": 64,
    "BodyPartExamined": "HEAD",
    "CogAtlasID": "TODO",
    "ConversionSoftware": "dcm2niix",
    "ConversionSoftwareVersion": "v1.0.20171017 GCC6.3.0",
    "DerivedVendorReportedEchoSpacing": 0.000590001,
    "DeviceSerialNumber": "35177",
    "DwellTime": 4.1e-06,
    "EchoTime": 0.027,
    "EffectiveEchoSpacing": 0.000590001,
    "FlipAngle": 90,
    "ImageOrientationPatientDICOM": [
      0.98811,
      -0.136615,
      0.0705323,
      0.121674,
      0.975279,
      0.184462
    ],
    "ImageType": [
      "ORIGINAL",
      "PRIMARY",
      "M",
      "ND",
      "NORM",
      "MOSAIC"
    ],
    "InPlanePhaseEncodingDirectionDICOM": "COL",
    "InstitutionAddress": "Scott_Ave._4525_St._Louis_MO_US_63110",
    "InstitutionName": "Washington_University",
    "InstitutionalDepartmentName": "Department",
    "MRAcquisitionType": "2D",
    "MagneticFieldStrength": 3,
    "Manufacturer": "Siemens",
    "ManufacturersModelName": "TrioTim",
    "Modality": "MR",
    "PartialFourier": 1,
    "PatientPosition": "HFS",
    "PercentPhaseFOV": 100,
    "PhaseEncodingDirection": "j-",
    "PhaseEncodingSteps": 64,
    "PhaseResolution": 1,
    "PixelBandwidth": 1905,
    "ProcedureStepDescription": "head_GREENE",
    "ProtocolName": "ep2d_bold_rest1",
    "PulseSequenceDetails": "%SiemensSeq%_ep2d_bold",
    "ReceiveCoilName": "HeadMatrix",
    "ReconMatrixPE": 64,
    "RepetitionTime": 2.5,
    "SAR": 0.162901,
    "ScanOptions": "FS",
    "ScanningSequence": "EP",
    "SequenceName": "_epfid2d1_64",
    "SequenceVariant": "SK",
    "SeriesDescription": "ep2d_bold_rest1",
    "SeriesNumber": 5,
    "ShimSetting": [
      -188,
      -19713,
      8012,
      403,
      38,
      -813,
      507,
      175
    ],
    "SliceThickness": 4,
    "SliceTiming": [
      1.255,
      0,
      1.3325,
      0.0775,
      1.41,
      0.1575,
      1.49,
      0.235,
      1.5675,
      0.3125,
      1.6475,
      0.3925,
      1.725,
      0.47,
      1.8025,
      0.5475,
      1.8825,
      0.6275,
      1.96,
      0.705,
      2.0375,
      0.785,
      2.1175,
      0.8625,
      2.195,
      0.94,
      2.275,
      1.02,
      2.3525,
      1.0975,
      2.43,
      1.175
    ],
    "SoftwareVersions": "syngo_MR_B17",
    "SpacingBetweenSlices": 4,
    "StationName": "MRC35177",
    "TaskName": "restbaseline",
    "TotalReadoutTime": 0.0371701,
    "TxRefAmp": 327.701,
    "dataset": "ds000256",
    "dcmmeta_affine": [
      [
        -3.9524402618408203,
        0.48669642210006714,
        0.37595611810684204,
        106.07947540283203
      ],
      [
        0.5464608669281006,
        3.901115894317627,
        0.6947482228279114,
        -157.6194610595703
      ],
      [
        0.2821291387081146,
        -0.7378488183021545,
        3.9212231636047363,
        -2.2691659927368164
      ],
      [
        0.0,
        0.0,
        0.0,
        1.0
      ]
    ],
    "dcmmeta_reorient_transform": [
      [
        0.0,
        -1.0,
        0.0,
        63.0
      ],
      [
        1.0,
        0.0,
        0.0,
        0.0
      ],
      [
        0.0,
        0.0,
        1.0,
        0.0
      ],
      [
        0.0,
        0.0,
        0.0,
        1.0
      ]
    ],
    "dcmmeta_shape": [
      64,
      64,
      32,
      164
    ],
    "dcmmeta_slice_dim": 2,
    "dcmmeta_version": 0.6,
    "global": {
      "const": {
        "AccessionNumber": ".",
        "AcquisitionMatrix": [
          64,
          0,
          0,
          64
        ],
        "AngioFlag": "N",
        "BitsAllocated": 16,
        "BitsStored": 12,
        "BodyPartExamined": "HEAD",
        "Columns": 384,
        "DeidentificationMethodCodeSequence": [
          {
            "CodeMeaning": "XNAT Edit Script",
            "CodeValue": "625500",
            "CodingSchemeDesignator": "XNAT",
            "CodingSchemeVersion": "0.1"
          }
        ],
        "EchoNumbers": 1,
        "EchoTime": 27.0,
        "EchoTrainLength": 1,
        "FlipAngle": 90.0,
        "HighBit": 11,
        "ImageOrientationPatient": [
          0.98811005484135,
          -0.1366152136366,
          0.07053228285303,
          0.12167410539309,
          0.97527898910252,
          0.18446220613435
        ],
        "ImagePositionPatient": [
          -847.00320991738,
          -624.89566134801,
          -211.95011500019
        ],
        "ImageType": [
          "ORIGINAL",
          "PRIMARY",
          "M",
          "ND",
          "NORM",
          "MOSAIC"
        ],
        "ImagedNucleus": "1H",
        "ImagingFrequency": 123.255782,
        "InPlanePhaseEncodingDirection": "COL",
        "MRAcquisitionType": "2D",
        "MagneticFieldStrength": 3.0,
        "Manufacturer": "SIEMENS",
        "ManufacturerModelName": "TrioTim",
        "Modality": "MR",
        "NumberOfAverages": 1.0,
        "NumberOfPhaseEncodingSteps": 64,
        "PercentPhaseFieldOfView": 100.0,
        "PercentSampling": 100.0,
        "PerformedProcedureStepStartTime": "162758.078000",
        "PhotometricInterpretation": "MONOCHROME2",
        "PixelBandwidth": 1905.0,
        "PixelRepresentation": 0,
        "PixelSpacing": [
          4.0,
          4.0
        ],
        "PositionReferenceIndicator": "",
        "ProtocolName": "ep2d_bold_rest1",
        "RepetitionTime": 2500.0,
        "Rows": 384,
        "SAR": 0.16290080852846,
        "SamplesPerPixel": 1,
        "ScanOptions": "FS",
        "ScanningSequence": "EP",
        "SequenceName": "*epfid2d1_64",
        "SequenceVariant": "SK",
        "SeriesDescription": "ep2d_bold_rest1",
        "SeriesNumber": 5,
        "SeriesTime": "163326.140000",
        "SliceLocation": -19.630625234242,
        "SliceThickness": 4.0,
        "SmallestImagePixelValue": 0,
        "SoftwareVersions": "syngo MR B17",
        "SpacingBetweenSlices": 4.0000012295781,
        "SpecificCharacterSet": "ISO_IR 100",
        "StudyID": "1",
        "StudyTime": "162758.015000",
        "TransmitCoilName": "Body",
        "VariableFlipAngleFlag": "N",
        "WindowCenterWidthExplanation": "Algo1",
        "dBdt": 0.0
      },
      "slices": {}
    },
    "modality": "bold",
    "subject_id": "CTS202",
    "task_id": "restbaseline",
    "time": {
      "samples": {
        "AcquisitionNumber": [
          1,
          2,
          3,
          4,
          5,
          6,
          7,
          8,
          9,
          10,
          11,
          12,
          13,
          14,
          15,
          16,
          17,
          18,
          19,
          20,
          21,
          22,
          23,
          24,
          25,
          26,
          27,
          28,
          29,
          30,
          31,
          32,
          33,
          34,
          35,
          36,
          37,
          38,
          39,
          40,
          41,
          42,
          43,
          44,
          45,
          46,
          47,
          48,
          49,
          50,
          51,
          52,
          53,
          54,
          55,
          56,
          57,
          58,
          59,
          60,
          61,
          62,
          63,
          64,
          65,
          66,
          67,
          68,
          69,
          70,
          71,
          72,
          73,
          74,
          75,
          76,
          77,
          78,
          79,
          80,
          81,
          82,
          83,
          84,
          85,
          86,
          87,
          88,
          89,
          90,
          91,
          92,
          93,
          94,
          95,
          96,
          97,
          98,
          99,
          100,
          101,
          102,
          103,
          104,
          105,
          106,
          107,
          108,
          109,
          110,
          111,
          112,
          113,
          114,
          115,
          116,
          117,
          118,
          119,
          120,
          121,
          122,
          123,
          124,
          125,
          126,
          127,
          128,
          129,
          130,
          131,
          132,
          133,
          134,
          135,
          136,
          137,
          138,
          139,
          140,
          141,
          142,
          143,
          144,
          145,
          146,
          147,
          148,
          149,
          150,
          151,
          152,
          153,
          154,
          155,
          156,
          157,
          158,
          159,
          160,
          161,
          162,
          163,
          164
        ],
        "AcquisitionTime": [
          "163323.962500",
          "163326.472500",
          "163328.982500",
          "163331.492500",
          "163334.002500",
          "163336.512500",
          "163339.022500",
          "163341.532500",
          "163344.042500",
          "163346.552500",
          "163349.062500",
          "163351.572500",
          "163354.082500",
          "163356.592500",
          "163359.102500",
          "163401.612500",
          "163404.122500",
          "163406.632500",
          "163409.142500",
          "163411.652500",
          "163414.162500",
          "163416.672500",
          "163419.182500",
          "163421.692500",
          "163424.202500",
          "163426.712500",
          "163429.222500",
          "163431.732500",
          "163434.242500",
          "163436.752500",
          "163439.262500",
          "163441.772500",
          "163444.282500",
          "163446.792500",
          "163449.302500",
          "163451.812500",
          "163454.322500",
          "163456.832500",
          "163459.342500",
          "163501.852500",
          "163504.362500",
          "163506.872500",
          "163509.382500",
          "163511.892500",
          "163514.402500",
          "163516.912500",
          "163519.422500",
          "163521.935000",
          "163524.445000",
          "163526.955000",
          "163529.465000",
          "163531.975000",
          "163534.485000",
          "163536.995000",
          "163539.505000",
          "163542.015000",
          "163544.525000",
          "163547.035000",
          "163549.545000",
          "163552.055000",
          "163554.565000",
          "163557.075000",
          "163559.585000",
          "163602.095000",
          "163604.605000",
          "163607.115000",
          "163609.625000",
          "163612.135000",
          "163614.645000",
          "163617.155000",
          "163619.665000",
          "163622.175000",
          "163624.685000",
          "163627.195000",
          "163629.705000",
          "163632.215000",
          "163634.725000",
          "163637.235000",
          "163639.745000",
          "163642.255000",
          "163644.765000",
          "163647.275000",
          "163649.785000",
          "163652.295000",
          "163654.805000",
          "163657.315000",
          "163659.825000",
          "163702.335000",
          "163704.845000",
          "163707.355000",
          "163709.865000",
          "163712.375000",
          "163714.885000",
          "163717.395000",
          "163719.905000",
          "163722.415000",
          "163724.925000",
          "163727.435000",
          "163729.945000",
          "163732.455000",
          "163734.965000",
          "163737.475000",
          "163739.985000",
          "163742.495000",
          "163745.005000",
          "163747.515000",
          "163750.025000",
          "163752.535000",
          "163755.045000",
          "163757.555000",
          "163800.067500",
          "163802.577500",
          "163805.087500",
          "163807.597500",
          "163810.107500",
          "163812.617500",
          "163815.127500",
          "163817.637500",
          "163820.147500",
          "163822.657500",
          "163825.167500",
          "163827.677500",
          "163830.187500",
          "163832.697500",
          "163835.207500",
          "163837.717500",
          "163840.227500",
          "163842.737500",
          "163845.247500",
          "163847.757500",
          "163850.267500",
          "163852.777500",
          "163855.287500",
          "163857.797500",
          "163900.307500",
          "163902.817500",
          "163905.327500",
          "163907.837500",
          "163910.347500",
          "163912.857500",
          "163915.367500",
          "163917.877500",
          "163920.387500",
          "163922.897500",
          "163925.407500",
          "163927.917500",
          "163930.427500",
          "163932.937500",
          "163935.447500",
          "163937.957500",
          "163940.467500",
          "163942.977500",
          "163945.487500",
          "163947.997500",
          "163950.507500",
          "163953.017500",
          "163955.527500",
          "163958.037500",
          "164000.547500",
          "164003.057500",
          "164005.567500",
          "164008.077500",
          "164010.587500",
          "164013.097500"
        ],
        "ContentTime": [
          "163326.140000",
          "163328.625000",
          "163331.125000",
          "163333.625000",
          "163336.125000",
          "163338.625000",
          "163341.125000",
          "163343.625000",
          "163346.125000",
          "163348.625000",
          "163351.125000",
          "163353.625000",
          "163356.125000",
          "163358.625000",
          "163401.125000",
          "163403.625000",
          "163406.125000",
          "163408.625000",
          "163411.125000",
          "163413.625000",
          "163416.125000",
          "163418.625000",
          "163421.125000",
          "163423.625000",
          "163426.125000",
          "163428.625000",
          "163431.125000",
          "163433.625000",
          "163436.125000",
          "163438.625000",
          "163441.125000",
          "163443.625000",
          "163446.125000",
          "163448.625000",
          "163451.125000",
          "163453.625000",
          "163456.125000",
          "163458.625000",
          "163501.125000",
          "163503.625000",
          "163506.125000",
          "163508.625000",
          "163511.125000",
          "163513.625000",
          "163516.125000",
          "163518.625000",
          "163521.125000",
          "163523.625000",
          "163526.125000",
          "163528.625000",
          "163531.125000",
          "163533.625000",
          "163536.125000",
          "163538.625000",
          "163541.125000",
          "163543.625000",
          "163546.125000",
          "163548.625000",
          "163551.125000",
          "163553.625000",
          "163556.125000",
          "163558.625000",
          "163601.125000",
          "163603.625000",
          "163606.125000",
          "163608.625000",
          "163611.125000",
          "163613.625000",
          "163616.125000",
          "163618.625000",
          "163621.125000",
          "163623.625000",
          "163626.125000",
          "163628.625000",
          "163631.125000",
          "163633.625000",
          "163636.125000",
          "163638.625000",
          "163641.125000",
          "163643.625000",
          "163646.125000",
          "163648.625000",
          "163651.125000",
          "163653.625000",
          "163656.125000",
          "163658.625000",
          "163701.125000",
          "163703.625000",
          "163706.125000",
          "163708.625000",
          "163711.125000",
          "163713.625000",
          "163716.125000",
          "163718.625000",
          "163721.125000",
          "163723.625000",
          "163726.125000",
          "163728.625000",
          "163731.125000",
          "163733.625000",
          "163736.125000",
          "163738.625000",
          "163741.125000",
          "163743.625000",
          "163746.125000",
          "163748.625000",
          "163751.125000",
          "163753.625000",
          "163756.125000",
          "163758.625000",
          "163801.125000",
          "163803.625000",
          "163806.125000",
          "163808.625000",
          "163811.125000",
          "163813.625000",
          "163816.125000",
          "163818.625000",
          "163821.125000",
          "163823.625000",
          "163826.125000",
          "163828.625000",
          "163831.125000",
          "163833.625000",
          "163836.125000",
          "163838.625000",
          "163841.125000",
          "163843.625000",
          "163846.125000",
          "163848.625000",
          "163851.125000",
          "163853.625000",
          "163856.125000",
          "163858.625000",
          "163901.125000",
          "163903.625000",
          "163906.125000",
          "163908.625000",
          "163911.125000",
          "163913.625000",
          "163916.125000",
          "163918.625000",
          "163921.125000",
          "163923.625000",
          "163926.125000",
          "163928.625000",
          "163931.125000",
          "163933.625000",
          "163936.125000",
          "163938.625000",
          "163941.125000",
          "163943.625000",
          "163946.125000",
          "163948.625000",
          "163951.125000",
          "163953.625000",
          "163956.125000",
          "163958.625000",
          "164001.125000",
          "164003.625000",
          "164006.125000",
          "164008.625000",
          "164011.125000",
          "164013.437000"
        ],
        "InstanceCreationTime": [
          "163326.140000",
          "163328.625000",
          "163331.125000",
          "163333.625000",
          "163336.125000",
          "163338.625000",
          "163341.125000",
          "163343.625000",
          "163346.125000",
          "163348.625000",
          "163351.125000",
          "163353.625000",
          "163356.125000",
          "163358.625000",
          "163401.125000",
          "163403.625000",
          "163406.125000",
          "163408.625000",
          "163411.125000",
          "163413.625000",
          "163416.125000",
          "163418.625000",
          "163421.125000",
          "163423.625000",
          "163426.125000",
          "163428.625000",
          "163431.125000",
          "163433.625000",
          "163436.125000",
          "163438.625000",
          "163441.125000",
          "163443.625000",
          "163446.125000",
          "163448.625000",
          "163451.125000",
          "163453.625000",
          "163456.125000",
          "163458.625000",
          "163501.125000",
          "163503.625000",
          "163506.125000",
          "163508.625000",
          "163511.125000",
          "163513.625000",
          "163516.125000",
          "163518.625000",
          "163521.125000",
          "163523.625000",
          "163526.125000",
          "163528.625000",
          "163531.125000",
          "163533.625000",
          "163536.125000",
          "163538.625000",
          "163541.125000",
          "163543.625000",
          "163546.125000",
          "163548.625000",
          "163551.125000",
          "163553.625000",
          "163556.125000",
          "163558.625000",
          "163601.125000",
          "163603.625000",
          "163606.125000",
          "163608.625000",
          "163611.125000",
          "163613.625000",
          "163616.125000",
          "163618.625000",
          "163621.125000",
          "163623.625000",
          "163626.125000",
          "163628.625000",
          "163631.125000",
          "163633.625000",
          "163636.125000",
          "163638.625000",
          "163641.125000",
          "163643.625000",
          "163646.125000",
          "163648.625000",
          "163651.125000",
          "163653.625000",
          "163656.125000",
          "163658.625000",
          "163701.125000",
          "163703.625000",
          "163706.125000",
          "163708.625000",
          "163711.125000",
          "163713.625000",
          "163716.125000",
          "163718.625000",
          "163721.125000",
          "163723.625000",
          "163726.125000",
          "163728.625000",
          "163731.125000",
          "163733.625000",
          "163736.125000",
          "163738.625000",
          "163741.125000",
          "163743.625000",
          "163746.125000",
          "163748.625000",
          "163751.125000",
          "163753.625000",
          "163756.125000",
          "163758.625000",
          "163801.125000",
          "163803.625000",
          "163806.125000",
          "163808.625000",
          "163811.125000",
          "163813.625000",
          "163816.125000",
          "163818.625000",
          "163821.125000",
          "163823.625000",
          "163826.125000",
          "163828.625000",
          "163831.125000",
          "163833.625000",
          "163836.125000",
          "163838.625000",
          "163841.125000",
          "163843.625000",
          "163846.125000",
          "163848.625000",
          "163851.125000",
          "163853.625000",
          "163856.125000",
          "163858.625000",
          "163901.125000",
          "163903.625000",
          "163906.125000",
          "163908.625000",
          "163911.125000",
          "163913.625000",
          "163916.125000",
          "163918.625000",
          "163921.125000",
          "163923.625000",
          "163926.125000",
          "163928.625000",
          "163931.125000",
          "163933.625000",
          "163936.125000",
          "163938.625000",
          "163941.125000",
          "163943.625000",
          "163946.125000",
          "163948.625000",
          "163951.125000",
          "163953.625000",
          "163956.125000",
          "163958.625000",
          "164001.125000",
          "164003.625000",
          "164006.125000",
          "164008.625000",
          "164011.125000",
          "164013.437000"
        ],
        "InstanceNumber": [
          1,
          2,
          3,
          4,
          5,
          6,
          7,
          8,
          9,
          10,
          11,
          12,
          13,
          14,
          15,
          16,
          17,
          18,
          19,
          20,
          21,
          22,
          23,
          24,
          25,
          26,
          27,
          28,
          29,
          30,
          31,
          32,
          33,
          34,
          35,
          36,
          37,
          38,
          39,
          40,
          41,
          42,
          43,
          44,
          45,
          46,
          47,
          48,
          49,
          50,
          51,
          52,
          53,
          54,
          55,
          56,
          57,
          58,
          59,
          60,
          61,
          62,
          63,
          64,
          65,
          66,
          67,
          68,
          69,
          70,
          71,
          72,
          73,
          74,
          75,
          76,
          77,
          78,
          79,
          80,
          81,
          82,
          83,
          84,
          85,
          86,
          87,
          88,
          89,
          90,
          91,
          92,
          93,
          94,
          95,
          96,
          97,
          98,
          99,
          100,
          101,
          102,
          103,
          104,
          105,
          106,
          107,
          108,
          109,
          110,
          111,
          112,
          113,
          114,
          115,
          116,
          117,
          118,
          119,
          120,
          121,
          122,
          123,
          124,
          125,
          126,
          127,
          128,
          129,
          130,
          131,
          132,
          133,
          134,
          135,
          136,
          137,
          138,
          139,
          140,
          141,
          142,
          143,
          144,
          145,
          146,
          147,
          148,
          149,
          150,
          151,
          152,
          153,
          154,
          155,
          156,
          157,
          158,
          159,
          160,
          161,
          162,
          163,
          164
        ],
        "LargestImagePixelValue": [
          1698,
          1542,
          1751,
          1608,
          1343,
          1442,
          1421,
          1400,
          1410,
          1531,
          1337,
          1545,
          1774,
          1356,
          1375,
          1580,
          1506,
          1427,
          1701,
          1405,
          1453,
          1537,
          1419,
          1406,
          1485,
          1531,
          1385,
          1384,
          1506,
          1403,
          1401,
          1387,
          1350,
          1433,
          1625,
          1433,
          1412,
          1317,
          1524,
          1767,
          1428,
          1436,
          1522,
          1355,
          1301,
          1350,
          1535,
          1543,
          1543,
          1385,
          1588,
          1333,
          1610,
          1684,
          1573,
          1500,
          1275,
          1552,
          1479,
          1413,
          1571,
          1343,
          1360,
          1527,
          1900,
          1405,
          1634,
          1362,
          1477,
          1414,
          1515,
          1586,
          1225,
          1302,
          1738,
          1690,
          1622,
          1545,
          1362,
          1415,
          1526,
          1439,
          1498,
          1442,
          1464,
          1356,
          1497,
          1626,
          1782,
          1347,
          1406,
          1276,
          1433,
          1519,
          1380,
          1383,
          1545,
          1411,
          1467,
          1367,
          1391,
          1364,
          1399,
          1377,
          1358,
          1532,
          1341,
          1494,
          1608,
          1591,
          1315,
          1465,
          1495,
          1460,
          1552,
          1404,
          1483,
          1408,
          1346,
          1291,
          1491,
          1529,
          1411,
          1393,
          1439,
          1412,
          1290,
          1515,
          1489,
          1291,
          1484,
          1498,
          1447,
          1255,
          1334,
          1899,
          1631,
          1702,
          1319,
          1376,
          1358,
          1311,
          1905,
          1617,
          1372,
          1957,
          2022,
          1344,
          1497,
          1222,
          1838,
          1303,
          1616,
          1440,
          1591,
          1526,
          1260,
          1302,
          1451,
          1444,
          1517,
          1571,
          1418,
          1427
        ],
        "WindowCenter": [
          606.0,
          603.0,
          603.0,
          602.0,
          602.0,
          604.0,
          602.0,
          602.0,
          607.0,
          600.0,
          605.0,
          609.0,
          602.0,
          605.0,
          606.0,
          604.0,
          603.0,
          602.0,
          603.0,
          603.0,
          602.0,
          608.0,
          606.0,
          603.0,
          602.0,
          603.0,
          600.0,
          603.0,
          605.0,
          604.0,
          603.0,
          608.0,
          602.0,
          603.0,
          604.0,
          601.0,
          601.0,
          602.0,
          604.0,
          603.0,
          601.0,
          602.0,
          602.0,
          602.0,
          607.0,
          604.0,
          608.0,
          608.0,
          603.0,
          604.0,
          608.0,
          607.0,
          604.0,
          609.0,
          608.0,
          604.0,
          603.0,
          602.0,
          602.0,
          607.0,
          608.0,
          603.0,
          605.0,
          608.0,
          602.0,
          602.0,
          608.0,
          605.0,
          599.0,
          602.0,
          602.0,
          601.0,
          599.0,
          602.0,
          603.0,
          603.0,
          602.0,
          601.0,
          606.0,
          600.0,
          602.0,
          600.0,
          602.0,
          601.0,
          601.0,
          606.0,
          604.0,
          602.0,
          601.0,
          601.0,
          601.0,
          600.0,
          601.0,
          602.0,
          601.0,
          602.0,
          601.0,
          603.0,
          600.0,
          601.0,
          602.0,
          602.0,
          603.0,
          603.0,
          603.0,
          603.0,
          603.0,
          604.0,
          603.0,
          603.0,
          601.0,
          603.0,
          603.0,
          607.0,
          602.0,
          602.0,
          602.0,
          606.0,
          602.0,
          603.0,
          608.0,
          603.0,
          603.0,
          602.0,
          602.0,
          602.0,
          602.0,
          603.0,
          605.0,
          601.0,
          603.0,
          603.0,
          601.0,
          602.0,
          603.0,
          605.0,
          605.0,
          599.0,
          603.0,
          602.0,
          599.0,
          603.0,
          597.0,
          601.0,
          607.0,
          604.0,
          603.0,
          599.0,
          598.0,
          601.0,
          603.0,
