{
  "aor": 0.002720365853658537,
  "aqi": 0.011319989451219512,
  "bids_meta": {
    "AcquisitionMatrixPE": 64,
    "AcquisitionNumber": 1,
    "AcquisitionTime": "17:09:46.497500",
    "BandwidthPerPixelPhaseEncode": 26.483,
    "BaseResolution": 64,
    "BodyPartExamined": "HEAD",
    "CogAtlasID": "TODO",
    "ConversionSoftware": "dcm2niix",
    "ConversionSoftwareVersion": "v1.0.20171017 GCC6.3.0",
    "DerivedVendorReportedEchoSpacing": 0.000590001,
    "DeviceSerialNumber": "35177",
    "DwellTime": 4.1e-06,
    "EchoTime": 0.027,
    "EffectiveEchoSpacing": 0.000590001,
    "FlipAngle": 90,
    "ImageOrientationPatientDICOM": [
      0.98811,
      -0.136615,
      0.0705323,
      0.121674,
      0.975279,
      0.184462
    ],
    "ImageType": [
      "ORIGINAL",
      "PRIMARY",
      "M",
      "ND",
      "NORM",
      "MOSAIC"
    ],
    "InPlanePhaseEncodingDirectionDICOM": "COL",
    "InstitutionAddress": "Scott_Ave._4525_St._Louis_MO_US_63110",
    "InstitutionName": "Washington_University",
    "InstitutionalDepartmentName": "Department",
    "MRAcquisitionType": "2D",
    "MagneticFieldStrength": 3,
    "Manufacturer": "Siemens",
    "ManufacturersModelName": "TrioTim",
    "Modality": "MR",
    "PartialFourier": 1,
    "PatientPosition": "HFS",
    "PercentPhaseFOV": 100,
    "PhaseEncodingDirection": "j-",
    "PhaseEncodingSteps": 64,
    "PhaseResolution": 1,
    "PixelBandwidth": 1905,
    "ProcedureStepDescription": "head_GREENE",
    "ProtocolName": "ep2d_bold_adaptive_feedback_rest",
    "PulseSequenceDetails": "%SiemensSeq%_ep2d_bold",
    "ReceiveCoilName": "HeadMatrix",
    "ReconMatrixPE": 64,
    "RepetitionTime": 2.5,
    "SAR": 0.162901,
    "ScanOptions": "FS",
    "ScanningSequence": "EP",
    "SequenceName": "_epfid2d1_64",
    "SequenceVariant": "SK",
    "SeriesDescription": "ep2d_bold_adaptive_feedback_rest",
    "SeriesNumber": 9,
    "ShimSetting": [
      -188,
      -19713,
      8012,
      403,
      38,
      -813,
      507,
      175
    ],
    "SliceThickness": 4,
    "SliceTiming": [
      1.255,
      0,
      1.3325,
      0.0775,
      1.4125,
      0.1575,
      1.49,
      0.235,
      1.5675,
      0.315,
      1.6475,
      0.3925,
      1.725,
      0.47,
      1.805,
      0.55,
      1.8825,
      0.6275,
      1.96,
      0.705,
      2.04,
      0.785,
      2.1175,
      0.8625,
      2.195,
      0.94,
      2.275,
      1.02,
      2.3525,
      1.0975,
      2.4325,
      1.1775
    ],
    "SoftwareVersions": "syngo_MR_B17",
    "SpacingBetweenSlices": 4,
    "StationName": "MRC35177",
    "TaskName": "restfixationadaptive",
    "TotalReadoutTime": 0.0371701,
    "TxRefAmp": 327.701,
    "dataset": "ds000256",
    "dcmmeta_affine": [
      [
        -3.9524402618408203,
        0.48669642210006714,
        0.37595611810684204,
        106.07947540283203
      ],
      [
        0.5464608669281006,
        3.901115894317627,
        0.6947482228279114,
        -157.6194610595703
      ],
      [
        0.2821291387081146,
        -0.7378488183021545,
        3.9212231636047363,
        -2.2691659927368164
      ],
      [
        0.0,
        0.0,
        0.0,
        1.0
      ]
    ],
    "dcmmeta_reorient_transform": [
      [
        0.0,
        -1.0,
        0.0,
        63.0
      ],
      [
        1.0,
        0.0,
        0.0,
        0.0
      ],
      [
        0.0,
        0.0,
        1.0,
        0.0
      ],
      [
        0.0,
        0.0,
        0.0,
        1.0
      ]
    ],
    "dcmmeta_shape": [
      64,
      64,
      32,
      164
    ],
    "dcmmeta_slice_dim": 2,
    "dcmmeta_version": 0.6,
    "global": {
      "const": {
        "AccessionNumber": ".",
        "AcquisitionMatrix": [
          64,
          0,
          0,
          64
        ],
        "AngioFlag": "N",
        "BitsAllocated": 16,
        "BitsStored": 12,
        "BodyPartExamined": "HEAD",
        "Columns": 384,
        "DeidentificationMethodCodeSequence": [
          {
            "CodeMeaning": "XNAT Edit Script",
            "CodeValue": "625500",
            "CodingSchemeDesignator": "XNAT",
            "CodingSchemeVersion": "0.1"
          }
        ],
        "EchoNumbers": 1,
        "EchoTime": 27.0,
        "EchoTrainLength": 1,
        "FlipAngle": 90.0,
        "HighBit": 11,
        "ImageOrientationPatient": [
          0.98811005484135,
          -0.1366152136366,
          0.07053228285303,
          0.12167410539309,
          0.97527898910252,
          0.18446220613435
        ],
        "ImagePositionPatient": [
          -847.00320991738,
          -624.89566134801,
          -211.95011500019
        ],
        "ImageType": [
          "ORIGINAL",
          "PRIMARY",
          "M",
          "ND",
          "NORM",
          "MOSAIC"
        ],
        "ImagedNucleus": "1H",
        "ImagingFrequency": 123.255791,
        "InPlanePhaseEncodingDirection": "COL",
        "MRAcquisitionType": "2D",
        "MagneticFieldStrength": 3.0,
        "Manufacturer": "SIEMENS",
        "ManufacturerModelName": "TrioTim",
        "Modality": "MR",
        "NumberOfAverages": 1.0,
        "NumberOfPhaseEncodingSteps": 64,
        "PercentPhaseFieldOfView": 100.0,
        "PercentSampling": 100.0,
        "PerformedProcedureStepStartTime": "162758.078000",
        "PhotometricInterpretation": "MONOCHROME2",
        "PixelBandwidth": 1905.0,
        "PixelRepresentation": 0,
        "PixelSpacing": [
          4.0,
          4.0
        ],
        "PositionReferenceIndicator": "",
        "ProtocolName": "ep2d_bold_adaptive_feedback_rest",
        "RepetitionTime": 2500.0,
        "Rows": 384,
        "SAR": 0.16290080852846,
        "SamplesPerPixel": 1,
        "ScanOptions": "FS",
        "ScanningSequence": "EP",
        "SequenceName": "*epfid2d1_64",
        "SequenceVariant": "SK",
        "SeriesDescription": "ep2d_bold_adaptive_feedback_rest",
        "SeriesNumber": 9,
        "SeriesTime": "170948.468000",
        "SliceLocation": -19.630625234242,
        "SliceThickness": 4.0,
        "SmallestImagePixelValue": 0,
        "SoftwareVersions": "syngo MR B17",
        "SpacingBetweenSlices": 4.0000012295781,
        "SpecificCharacterSet": "ISO_IR 100",
        "StudyID": "1",
        "StudyTime": "162758.015000",
        "TransmitCoilName": "Body",
        "VariableFlipAngleFlag": "N",
        "WindowCenterWidthExplanation": "Algo1",
        "dBdt": 0.0
      },
      "slices": {}
    },
    "modality": "bold",
    "subject_id": "CTS202",
    "task_id": "restfixationadaptive",
    "time": {
      "samples": {
        "AcquisitionNumber": [
          1,
          2,
          3,
          4,
          5,
          6,
          7,
          8,
          9,
          10,
          11,
          12,
          13,
          14,
          15,
          16,
          17,
          18,
          19,
          20,
          21,
          22,
          23,
          24,
          25,
          26,
          27,
          28,
          29,
          30,
          31,
          32,
          33,
          34,
          35,
          36,
          37,
          38,
          39,
          40,
          41,
          42,
          43,
          44,
          45,
          46,
          47,
          48,
          49,
          50,
          51,
          52,
          53,
          54,
          55,
          56,
          57,
          58,
          59,
          60,
          61,
          62,
          63,
          64,
          65,
          66,
          67,
          68,
          69,
          70,
          71,
          72,
          73,
          74,
          75,
          76,
          77,
          78,
          79,
          80,
          81,
          82,
          83,
          84,
          85,
          86,
          87,
          88,
          89,
          90,
          91,
          92,
          93,
          94,
          95,
          96,
          97,
          98,
          99,
          100,
          101,
          102,
          103,
          104,
          105,
          106,
          107,
          108,
          109,
          110,
          111,
          112,
          113,
          114,
          115,
          116,
          117,
          118,
          119,
          120,
          121,
          122,
          123,
          124,
          125,
          126,
          127,
          128,
          129,
          130,
          131,
          132,
          133,
          134,
          135,
          136,
          137,
          138,
          139,
          140,
          141,
          142,
          143,
          144,
          145,
          146,
          147,
          148,
          149,
          150,
          151,
          152,
          153,
          154,
          155,
          156,
          157,
          158,
          159,
          160,
          161,
          162,
          163,
          164
        ],
        "AcquisitionTime": [
          "170946.497500",
          "170949.007500",
          "170951.517500",
          "170954.027500",
          "170956.537500",
          "170959.047500",
          "171001.557500",
          "171004.067500",
          "171006.577500",
          "171009.087500",
          "171011.597500",
          "171014.107500",
          "171016.617500",
          "171019.127500",
          "171021.637500",
          "171024.147500",
          "171026.657500",
          "171029.167500",
          "171031.677500",
          "171034.187500",
          "171036.697500",
          "171039.207500",
          "171041.717500",
          "171044.227500",
          "171046.737500",
          "171049.247500",
          "171051.757500",
          "171054.267500",
          "171056.777500",
          "171059.287500",
          "171101.797500",
          "171104.307500",
          "171106.817500",
          "171109.330000",
          "171111.840000",
          "171114.350000",
          "171116.860000",
          "171119.370000",
          "171121.880000",
          "171124.390000",
          "171126.900000",
          "171129.410000",
          "171131.920000",
          "171134.430000",
          "171136.940000",
          "171139.450000",
          "171141.960000",
          "171144.470000",
          "171146.980000",
          "171149.490000",
          "171152.000000",
          "171154.510000",
          "171157.020000",
          "171159.530000",
          "171202.040000",
          "171204.550000",
          "171207.060000",
          "171209.570000",
          "171212.080000",
          "171214.590000",
          "171217.100000",
          "171219.610000",
          "171222.120000",
          "171224.630000",
          "171227.140000",
          "171229.650000",
          "171232.160000",
          "171234.670000",
          "171237.180000",
          "171239.690000",
          "171242.200000",
          "171244.710000",
          "171247.220000",
          "171249.730000",
          "171252.240000",
          "171254.750000",
          "171257.260000",
          "171259.770000",
          "171302.280000",
          "171304.790000",
          "171307.300000",
          "171309.810000",
          "171312.320000",
          "171314.830000",
          "171317.340000",
          "171319.850000",
          "171322.360000",
          "171324.870000",
          "171327.380000",
          "171329.890000",
          "171332.400000",
          "171334.910000",
          "171337.420000",
          "171339.930000",
          "171342.440000",
          "171344.952500",
          "171347.462500",
          "171349.972500",
          "171352.482500",
          "171354.992500",
          "171357.502500",
          "171400.012500",
          "171402.522500",
          "171405.032500",
          "171407.542500",
          "171410.052500",
          "171412.562500",
          "171415.072500",
          "171417.582500",
          "171420.092500",
          "171422.602500",
          "171425.112500",
          "171427.622500",
          "171430.132500",
          "171432.642500",
          "171435.152500",
          "171437.662500",
          "171440.172500",
          "171442.682500",
          "171445.192500",
          "171447.702500",
          "171450.212500",
          "171452.722500",
          "171455.232500",
          "171457.742500",
          "171500.252500",
          "171502.762500",
          "171505.272500",
          "171507.782500",
          "171510.292500",
          "171512.802500",
          "171515.312500",
          "171517.822500",
          "171520.332500",
          "171522.842500",
          "171525.352500",
          "171527.862500",
          "171530.372500",
          "171532.882500",
          "171535.392500",
          "171537.902500",
          "171540.412500",
          "171542.922500",
          "171545.432500",
          "171547.942500",
          "171550.452500",
          "171552.962500",
          "171555.472500",
          "171557.982500",
          "171600.492500",
          "171603.002500",
          "171605.512500",
          "171608.022500",
          "171610.532500",
          "171613.042500",
          "171615.552500",
          "171618.062500",
          "171620.572500",
          "171623.085000",
          "171625.595000",
          "171628.105000",
          "171630.615000",
          "171633.125000",
          "171635.635000"
        ],
        "ContentTime": [
          "170948.468000",
          "170950.968000",
          "170953.468000",
          "170955.968000",
          "170958.468000",
          "171000.968000",
          "171003.468000",
          "171005.968000",
          "171008.468000",
          "171010.968000",
          "171013.468000",
          "171015.968000",
          "171018.468000",
          "171020.968000",
          "171023.468000",
          "171025.968000",
          "171028.468000",
          "171030.968000",
          "171033.468000",
          "171035.968000",
          "171038.468000",
          "171040.968000",
          "171043.468000",
          "171045.968000",
          "171048.468000",
          "171050.968000",
          "171053.468000",
          "171055.968000",
          "171058.468000",
          "171100.968000",
          "171103.468000",
          "171105.968000",
          "171108.468000",
          "171110.968000",
          "171113.468000",
          "171115.968000",
          "171118.468000",
          "171120.968000",
          "171123.468000",
          "171125.968000",
          "171128.468000",
          "171130.968000",
          "171133.468000",
          "171135.968000",
          "171138.468000",
          "171140.968000",
          "171143.468000",
          "171145.968000",
          "171148.468000",
          "171150.968000",
          "171153.468000",
          "171155.968000",
          "171158.468000",
          "171200.968000",
          "171203.468000",
          "171205.968000",
          "171208.468000",
          "171210.968000",
          "171213.468000",
          "171215.968000",
          "171218.468000",
          "171220.968000",
          "171223.468000",
          "171225.968000",
          "171228.468000",
          "171230.968000",
          "171233.468000",
          "171235.968000",
          "171238.468000",
          "171240.968000",
          "171243.468000",
          "171245.968000",
          "171248.468000",
          "171250.968000",
          "171253.468000",
          "171255.968000",
          "171258.468000",
          "171300.968000",
          "171303.468000",
          "171305.968000",
          "171308.468000",
          "171310.968000",
          "171313.468000",
          "171315.968000",
          "171318.468000",
          "171320.968000",
          "171323.468000",
          "171325.968000",
          "171328.468000",
          "171330.968000",
          "171333.468000",
          "171335.968000",
          "171338.468000",
          "171340.968000",
          "171343.468000",
          "171345.968000",
          "171348.468000",
          "171350.968000",
          "171353.468000",
          "171355.968000",
          "171358.468000",
          "171400.968000",
          "171403.468000",
          "171405.968000",
          "171408.468000",
          "171410.968000",
          "171413.468000",
          "171415.968000",
          "171418.468000",
          "171420.968000",
          "171423.468000",
          "171425.968000",
          "171428.468000",
          "171430.968000",
          "171433.468000",
          "171435.968000",
          "171438.468000",
          "171440.968000",
          "171443.468000",
          "171445.968000",
          "171448.468000",
          "171450.968000",
          "171453.468000",
          "171455.968000",
          "171458.468000",
          "171500.968000",
          "171503.468000",
          "171505.968000",
          "171508.468000",
          "171510.968000",
          "171513.468000",
          "171515.968000",
          "171518.468000",
          "171520.968000",
          "171523.468000",
          "171525.968000",
          "171528.468000",
          "171530.968000",
          "171533.468000",
          "171535.968000",
          "171538.468000",
          "171540.968000",
          "171543.468000",
          "171545.968000",
          "171548.468000",
          "171550.968000",
          "171553.468000",
          "171555.968000",
          "171558.468000",
          "171600.968000",
          "171603.468000",
          "171605.968000",
          "171608.468000",
          "171610.968000",
          "171613.468000",
          "171615.968000",
          "171618.468000",
          "171620.968000",
          "171623.468000",
          "171625.968000",
          "171628.468000",
          "171630.968000",
          "171633.468000",
          "171635.593000"
        ],
        "InstanceCreationTime": [
          "170948.468000",
          "170950.968000",
          "170953.468000",
          "170955.968000",
          "170958.468000",
          "171000.968000",
          "171003.468000",
          "171005.968000",
          "171008.468000",
          "171010.968000",
          "171013.468000",
          "171015.968000",
          "171018.468000",
          "171020.968000",
          "171023.468000",
          "171025.968000",
          "171028.468000",
          "171030.968000",
          "171033.468000",
          "171035.968000",
          "171038.468000",
          "171040.968000",
          "171043.468000",
          "171045.968000",
          "171048.468000",
          "171050.968000",
          "171053.468000",
          "171055.968000",
          "171058.468000",
          "171100.968000",
          "171103.468000",
          "171105.968000",
          "171108.468000",
          "171110.968000",
          "171113.468000",
          "171115.968000",
          "171118.468000",
          "171120.968000",
          "171123.468000",
          "171125.968000",
          "171128.468000",
          "171130.968000",
          "171133.468000",
          "171135.968000",
          "171138.468000",
          "171140.968000",
          "171143.468000",
          "171145.968000",
          "171148.468000",
          "171150.968000",
          "171153.468000",
          "171155.968000",
          "171158.468000",
          "171200.968000",
          "171203.468000",
          "171205.968000",
          "171208.468000",
          "171210.968000",
          "171213.468000",
          "171215.968000",
          "171218.468000",
          "171220.968000",
          "171223.468000",
          "171225.968000",
          "171228.468000",
          "171230.968000",
          "171233.468000",
          "171235.968000",
          "171238.468000",
          "171240.968000",
          "171243.468000",
          "171245.968000",
          "171248.468000",
          "171250.968000",
          "171253.468000",
          "171255.968000",
          "171258.468000",
          "171300.968000",
          "171303.468000",
          "171305.968000",
          "171308.468000",
          "171310.968000",
          "171313.468000",
          "171315.968000",
          "171318.468000",
          "171320.968000",
          "171323.468000",
          "171325.968000",
          "171328.468000",
          "171330.968000",
          "171333.468000",
          "171335.968000",
          "171338.468000",
          "171340.968000",
          "171343.468000",
          "171345.968000",
          "171348.468000",
          "171350.968000",
          "171353.468000",
          "171355.968000",
          "171358.468000",
          "171400.968000",
          "171403.468000",
          "171405.968000",
          "171408.468000",
          "171410.968000",
          "171413.468000",
          "171415.968000",
          "171418.468000",
          "171420.968000",
          "171423.468000",
          "171425.968000",
          "171428.468000",
          "171430.968000",
          "171433.468000",
          "171435.968000",
          "171438.468000",
          "171440.968000",
          "171443.468000",
          "171445.968000",
          "171448.468000",
          "171450.968000",
          "171453.468000",
          "171455.968000",
          "171458.468000",
          "171500.968000",
          "171503.468000",
          "171505.968000",
          "171508.468000",
          "171510.968000",
          "171513.468000",
          "171515.968000",
          "171518.468000",
          "171520.968000",
          "171523.468000",
          "171525.968000",
          "171528.468000",
          "171530.968000",
          "171533.468000",
          "171535.968000",
          "171538.468000",
          "171540.968000",
          "171543.468000",
          "171545.968000",
          "171548.468000",
          "171550.968000",
          "171553.468000",
          "171555.968000",
          "171558.468000",
          "171600.968000",
          "171603.468000",
          "171605.968000",
          "171608.468000",
          "171610.968000",
          "171613.468000",
          "171615.968000",
          "171618.468000",
          "171620.968000",
          "171623.468000",
          "171625.968000",
          "171628.468000",
          "171630.968000",
          "171633.468000",
          "171635.593000"
        ],
        "InstanceNumber": [
          1,
          2,
          3,
          4,
          5,
          6,
          7,
          8,
          9,
          10,
          11,
          12,
          13,
          14,
          15,
          16,
          17,
          18,
          19,
          20,
          21,
          22,
          23,
          24,
          25,
          26,
          27,
          28,
          29,
          30,
          31,
          32,
          33,
          34,
          35,
          36,
          37,
          38,
          39,
          40,
          41,
          42,
          43,
          44,
          45,
          46,
          47,
          48,
          49,
          50,
          51,
          52,
          53,
          54,
          55,
          56,
          57,
          58,
          59,
          60,
          61,
          62,
          63,
          64,
          65,
          66,
          67,
          68,
          69,
          70,
          71,
          72,
          73,
          74,
          75,
          76,
          77,
          78,
          79,
          80,
          81,
          82,
          83,
          84,
          85,
          86,
          87,
          88,
          89,
          90,
          91,
          92,
          93,
          94,
          95,
          96,
          97,
          98,
          99,
          100,
          101,
          102,
          103,
          104,
          105,
          106,
          107,
          108,
          109,
          110,
          111,
          112,
          113,
          114,
          115,
          116,
          117,
          118,
          119,
          120,
          121,
          122,
          123,
          124,
          125,
          126,
          127,
          128,
          129,
          130,
          131,
          132,
          133,
          134,
          135,
          136,
          137,
          138,
          139,
          140,
          141,
          142,
          143,
          144,
          145,
          146,
          147,
          148,
          149,
          150,
          151,
          152,
          153,
          154,
          155,
          156,
          157,
          158,
          159,
          160,
          161,
          162,
          163,
          164
        ],
        "LargestImagePixelValue": [
          1359,
          1489,
          1515,
          1656,
          1621,
          1352,
          1647,
          1633,
          1216,
          1300,
          1407,
          1701,
          1623,
          1572,
          1321,
          1480,
          1456,
          1245,
          1554,
          1795,
          1374,
          1588,
          1402,
          1267,
          1240,
          1371,
          1797,
          1311,
          1299,
          1259,
          1292,
          1633,
          1717,
          1241,
          1563,
          1416,
          1382,
          1807,
          1266,
          1262,
          1339,
          1354,
          1325,
          1876,
          1924,
          1404,
          1384,
          1364,
          1544,
          1300,
          1551,
          1391,
          1560,
          1571,
          1373,
          1332,
          1675,
          1352,
          1340,
          1467,
          1552,
          1220,
          1415,
          1753,
          1566,
          1376,
          1391,
          1313,
          1630,
          1478,
          1858,
          1758,
          1430,
          1274,
          1304,
          1204,
          1445,
          1326,
          2084,
          1668,
          1592,
          1626,
          1537,
          1313,
          1449,
          1796,
          1808,
          1312,
          1475,
          1260,
          1484,
          1347,
          1676,
          1514,
          1332,
          1293,
          1351,
          1577,
          1334,
          1237,
          1395,
          1623,
          1578,
          1649,
          1605,
          1414,
          1262,
          1282,
          1426,
          1563,
          1678,
          1533,
          1303,
          1521,
          1236,
          1468,
          1672,
          1626,
          1312,
          1234,
          1282,
          1415,
          1291,
          1769,
          1399,
          1346,
          1832,
          1335,
          1524,
          1245,
          1445,
          1346,
          1314,
          1439,
          1511,
          1653,
          1720,
          1956,
          1549,
          1395,
          1309,
          1430,
          1261,
          1391,
          1381,
          1489,
          1360,
          1672,
          1271,
          1447,
          1277,
          1357,
          1642,
          1617,
          1356,
          1552,
          1492,
          1409,
          1834,
          1365,
          1295,
          1227,
          1475,
          1456
        ],
        "WindowCenter": [
          607.0,
          606.0,
          605.0,
          606.0,
          605.0,
          608.0,
          605.0,
          605.0,
          603.0,
          604.0,
          605.0,
          606.0,
          604.0,
          604.0,
          605.0,
          605.0,
          606.0,
          604.0,
          604.0,
          606.0,
          604.0,
          606.0,
          605.0,
          604.0,
          604.0,
          604.0,
          607.0,
          605.0,
          605.0,
          605.0,
          605.0,
          606.0,
          606.0,
          605.0,
          606.0,
          605.0,
          605.0,
          605.0,
          603.0,
          606.0,
          606.0,
          606.0,
          606.0,
          606.0,
          604.0,
          606.0,
          605.0,
          605.0,
          606.0,
          605.0,
          605.0,
          605.0,
          605.0,
          604.0,
          605.0,
          604.0,
          605.0,
          607.0,
          605.0,
          606.0,
          605.0,
          605.0,
          606.0,
          606.0,
          605.0,
          606.0,
          605.0,
          604.0,
          605.0,
          605.0,
          607.0,
          605.0,
          605.0,
          604.0,
          603.0,
          605.0,
          607.0,
          606.0,
          607.0,
          607.0,
          605.0,
          604.0,
          604.0,
          603.0,
          603.0,
          604.0,
          603.0,
          603.0,
          604.0,
          604.0,
          605.0,
          604.0,
          605.0,
          603.0,
          602.0,
          603.0,
          603.0,
          604.0,
          605.0,
          603.0,
          605.0,
          605.0,
          605.0,
          607.0,
          605.0,
          605.0,
          605.0,
          605.0,
          606.0,
          606.0,
          605.0,
          605.0,
          603.0,
          604.0,
          605.0,
          605.0,
          606.0,
          604.0,
          603.0,
          603.0,
          604.0,
          604.0,
          603.0,
          605.0,
          604.0,
          605.0,
          605.0,
          602.0,
          603.0,
          604.0,
          611.0,
          606.0,
          605.0,
          605.0,
          605.0,
          605.0,
          604.0,
          604.0,
          605.0,
          605.0,
          603.0,
          604.0,
          604.0,
          605.0,
          604.0,
          605.0,
