{
  "aor": 0.0021046951219512197,
  "aqi": 0.006249623902439024,
  "bids_meta": {
    "AcquisitionMatrixPE": 64,
    "AcquisitionNumber": 1,
    "AcquisitionTime": "17:17:21.955000",
    "BandwidthPerPixelPhaseEncode": 26.483,
    "BaseResolution": 64,
    "BodyPartExamined": "HEAD",
    "CogAtlasID": "TODO",
    "ConversionSoftware": "dcm2niix",
    "ConversionSoftwareVersion": "v1.0.20171017 GCC6.3.0",
    "DerivedVendorReportedEchoSpacing": 0.000590001,
    "DeviceSerialNumber": "35177",
    "DwellTime": 4.1e-06,
    "EchoTime": 0.027,
    "EffectiveEchoSpacing": 0.000590001,
    "FlipAngle": 90,
    "ImageOrientationPatientDICOM": [
      0.98811,
      -0.136615,
      0.0705323,
      0.121674,
      0.975279,
      0.184462
    ],
    "ImageType": [
      "ORIGINAL",
      "PRIMARY",
      "M",
      "ND",
      "NORM",
      "MOSAIC"
    ],
    "InPlanePhaseEncodingDirectionDICOM": "COL",
    "InstitutionAddress": "Scott_Ave._4525_St._Louis_MO_US_63110",
    "InstitutionName": "Washington_University",
    "InstitutionalDepartmentName": "Department",
    "MRAcquisitionType": "2D",
    "MagneticFieldStrength": 3,
    "Manufacturer": "Siemens",
    "ManufacturersModelName": "TrioTim",
    "Modality": "MR",
    "PartialFourier": 1,
    "PatientPosition": "HFS",
    "PercentPhaseFOV": 100,
    "PhaseEncodingDirection": "j-",
    "PhaseEncodingSteps": 64,
    "PhaseResolution": 1,
    "PixelBandwidth": 1905,
    "ProcedureStepDescription": "head_GREENE",
    "ProtocolName": "ep2d_bold_rest2",
    "PulseSequenceDetails": "%SiemensSeq%_ep2d_bold",
    "ReceiveCoilName": "HeadMatrix",
    "ReconMatrixPE": 64,
    "RepetitionTime": 2.5,
    "SAR": 0.162901,
    "ScanOptions": "FS",
    "ScanningSequence": "EP",
    "SequenceName": "_epfid2d1_64",
    "SequenceVariant": "SK",
    "SeriesDescription": "ep2d_bold_rest2",
    "SeriesNumber": 10,
    "ShimSetting": [
      -188,
      -19713,
      8012,
      403,
      38,
      -813,
      507,
      175
    ],
    "SliceThickness": 4,
    "SliceTiming": [
      1.255,
      0,
      1.335,
      0.08,
      1.4125,
      0.1575,
      1.49,
      0.235,
      1.57,
      0.315,
      1.6475,
      0.3925,
      1.725,
      0.47,
      1.805,
      0.55,
      1.8825,
      0.6275,
      1.96,
      0.7075,
      2.04,
      0.785,
      2.1175,
      0.8625,
      2.1975,
      0.9425,
      2.275,
      1.02,
      2.3525,
      1.0975,
      2.4325,
      1.1775
    ],
    "SoftwareVersions": "syngo_MR_B17",
    "SpacingBetweenSlices": 4,
    "StationName": "MRC35177",
    "TaskName": "restfixationnofeedback",
    "TotalReadoutTime": 0.0371701,
    "TxRefAmp": 327.701,
    "dataset": "ds000256",
    "dcmmeta_affine": [
      [
        -3.9524402618408203,
        0.48669642210006714,
        0.37595611810684204,
        106.07947540283203
      ],
      [
        0.5464608669281006,
        3.901115894317627,
        0.6947482228279114,
        -157.6194610595703
      ],
      [
        0.2821291387081146,
        -0.7378488183021545,
        3.9212231636047363,
        -2.2691659927368164
      ],
      [
        0.0,
        0.0,
        0.0,
        1.0
      ]
    ],
    "dcmmeta_reorient_transform": [
      [
        0.0,
        -1.0,
        0.0,
        63.0
      ],
      [
        1.0,
        0.0,
        0.0,
        0.0
      ],
      [
        0.0,
        0.0,
        1.0,
        0.0
      ],
      [
        0.0,
        0.0,
        0.0,
        1.0
      ]
    ],
    "dcmmeta_shape": [
      64,
      64,
      32,
      164
    ],
    "dcmmeta_slice_dim": 2,
    "dcmmeta_version": 0.6,
    "global": {
      "const": {
        "AccessionNumber": ".",
        "AcquisitionMatrix": [
          64,
          0,
          0,
          64
        ],
        "AngioFlag": "N",
        "BitsAllocated": 16,
        "BitsStored": 12,
        "BodyPartExamined": "HEAD",
        "Columns": 384,
        "DeidentificationMethodCodeSequence": [
          {
            "CodeMeaning": "XNAT Edit Script",
            "CodeValue": "625500",
            "CodingSchemeDesignator": "XNAT",
            "CodingSchemeVersion": "0.1"
          }
        ],
        "EchoNumbers": 1,
        "EchoTime": 27.0,
        "EchoTrainLength": 1,
        "FlipAngle": 90.0,
        "HighBit": 11,
        "ImageOrientationPatient": [
          0.98811005484135,
          -0.1366152136366,
          0.07053228285303,
          0.12167410539309,
          0.97527898910252,
          0.18446220613435
        ],
        "ImagePositionPatient": [
          -847.00320991738,
          -624.89566134801,
          -211.95011500019
        ],
        "ImageType": [
          "ORIGINAL",
          "PRIMARY",
          "M",
          "ND",
          "NORM",
          "MOSAIC"
        ],
        "ImagedNucleus": "1H",
        "ImagingFrequency": 123.255792,
        "InPlanePhaseEncodingDirection": "COL",
        "MRAcquisitionType": "2D",
        "MagneticFieldStrength": 3.0,
        "Manufacturer": "SIEMENS",
        "ManufacturerModelName": "TrioTim",
        "Modality": "MR",
        "NumberOfAverages": 1.0,
        "NumberOfPhaseEncodingSteps": 64,
        "PercentPhaseFieldOfView": 100.0,
        "PercentSampling": 100.0,
        "PerformedProcedureStepStartTime": "162758.078000",
        "PhotometricInterpretation": "MONOCHROME2",
        "PixelBandwidth": 1905.0,
        "PixelRepresentation": 0,
        "PixelSpacing": [
          4.0,
          4.0
        ],
        "PositionReferenceIndicator": "",
        "ProtocolName": "ep2d_bold_rest2",
        "RepetitionTime": 2500.0,
        "Rows": 384,
        "SAR": 0.16290080852846,
        "SamplesPerPixel": 1,
        "ScanOptions": "FS",
        "ScanningSequence": "EP",
        "SequenceName": "*epfid2d1_64",
        "SequenceVariant": "SK",
        "SeriesDescription": "ep2d_bold_rest2",
        "SeriesNumber": 10,
        "SeriesTime": "171723.671000",
        "SliceLocation": -19.630625234242,
        "SliceThickness": 4.0,
        "SmallestImagePixelValue": 0,
        "SoftwareVersions": "syngo MR B17",
        "SpacingBetweenSlices": 4.0000012295781,
        "SpecificCharacterSet": "ISO_IR 100",
        "StudyID": "1",
        "StudyTime": "162758.015000",
        "TransmitCoilName": "Body",
        "VariableFlipAngleFlag": "N",
        "WindowCenterWidthExplanation": "Algo1",
        "dBdt": 0.0
      },
      "slices": {}
    },
    "modality": "bold",
    "subject_id": "CTS202",
    "task_id": "restfixationnofeedback",
    "time": {
      "samples": {
        "AcquisitionNumber": [
          1,
          2,
          3,
          4,
          5,
          6,
          7,
          8,
          9,
          10,
          11,
          12,
          13,
          14,
          15,
          16,
          17,
          18,
          19,
          20,
          21,
          22,
          23,
          24,
          25,
          26,
          27,
          28,
          29,
          30,
          31,
          32,
          33,
          34,
          35,
          36,
          37,
          38,
          39,
          40,
          41,
          42,
          43,
          44,
          45,
          46,
          47,
          48,
          49,
          50,
          51,
          52,
          53,
          54,
          55,
          56,
          57,
          58,
          59,
          60,
          61,
          62,
          63,
          64,
          65,
          66,
          67,
          68,
          69,
          70,
          71,
          72,
          73,
          74,
          75,
          76,
          77,
          78,
          79,
          80,
          81,
          82,
          83,
          84,
          85,
          86,
          87,
          88,
          89,
          90,
          91,
          92,
          93,
          94,
          95,
          96,
          97,
          98,
          99,
          100,
          101,
          102,
          103,
          104,
          105,
          106,
          107,
          108,
          109,
          110,
          111,
          112,
          113,
          114,
          115,
          116,
          117,
          118,
          119,
          120,
          121,
          122,
          123,
          124,
          125,
          126,
          127,
          128,
          129,
          130,
          131,
          132,
          133,
          134,
          135,
          136,
          137,
          138,
          139,
          140,
          141,
          142,
          143,
          144,
          145,
          146,
          147,
          148,
          149,
          150,
          151,
          152,
          153,
          154,
          155,
          156,
          157,
          158,
          159,
          160,
          161,
          162,
          163,
          164
        ],
        "AcquisitionTime": [
          "171721.955000",
          "171724.465000",
          "171726.975000",
          "171729.485000",
          "171731.995000",
          "171734.505000",
          "171737.015000",
          "171739.525000",
          "171742.035000",
          "171744.545000",
          "171747.055000",
          "171749.565000",
          "171752.075000",
          "171754.585000",
          "171757.095000",
          "171759.605000",
          "171802.115000",
          "171804.625000",
          "171807.135000",
          "171809.645000",
          "171812.155000",
          "171814.667500",
          "171817.177500",
          "171819.687500",
          "171822.197500",
          "171824.707500",
          "171827.217500",
          "171829.727500",
          "171832.237500",
          "171834.747500",
          "171837.257500",
          "171839.767500",
          "171842.277500",
          "171844.787500",
          "171847.297500",
          "171849.807500",
          "171852.317500",
          "171854.827500",
          "171857.337500",
          "171859.847500",
          "171902.357500",
          "171904.867500",
          "171907.377500",
          "171909.887500",
          "171912.397500",
          "171914.907500",
          "171917.417500",
          "171919.927500",
          "171922.437500",
          "171924.947500",
          "171927.457500",
          "171929.967500",
          "171932.477500",
          "171934.987500",
          "171937.497500",
          "171940.007500",
          "171942.517500",
          "171945.027500",
          "171947.537500",
          "171950.047500",
          "171952.557500",
          "171955.067500",
          "171957.577500",
          "172000.087500",
          "172002.597500",
          "172005.107500",
          "172007.617500",
          "172010.127500",
          "172012.637500",
          "172015.147500",
          "172017.657500",
          "172020.167500",
          "172022.677500",
          "172025.187500",
          "172027.697500",
          "172030.207500",
          "172032.717500",
          "172035.227500",
          "172037.737500",
          "172040.247500",
          "172042.757500",
          "172045.267500",
          "172047.777500",
          "172050.290000",
          "172052.800000",
          "172055.310000",
          "172057.820000",
          "172100.330000",
          "172102.840000",
          "172105.350000",
          "172107.860000",
          "172110.370000",
          "172112.880000",
          "172115.390000",
          "172117.900000",
          "172120.410000",
          "172122.920000",
          "172125.430000",
          "172127.940000",
          "172130.450000",
          "172132.960000",
          "172135.470000",
          "172137.980000",
          "172140.490000",
          "172143.000000",
          "172145.510000",
          "172148.020000",
          "172150.530000",
          "172153.040000",
          "172155.550000",
          "172158.060000",
          "172200.570000",
          "172203.080000",
          "172205.590000",
          "172208.100000",
          "172210.610000",
          "172213.120000",
          "172215.630000",
          "172218.140000",
          "172220.650000",
          "172223.160000",
          "172225.670000",
          "172228.180000",
          "172230.690000",
          "172233.200000",
          "172235.710000",
          "172238.220000",
          "172240.730000",
          "172243.240000",
          "172245.750000",
          "172248.260000",
          "172250.770000",
          "172253.280000",
          "172255.790000",
          "172258.300000",
          "172300.810000",
          "172303.320000",
          "172305.830000",
          "172308.340000",
          "172310.850000",
          "172313.360000",
          "172315.870000",
          "172318.380000",
          "172320.890000",
          "172323.400000",
          "172325.910000",
          "172328.422500",
          "172330.932500",
          "172333.442500",
          "172335.952500",
          "172338.462500",
          "172340.972500",
          "172343.482500",
          "172345.992500",
          "172348.502500",
          "172351.012500",
          "172353.522500",
          "172356.032500",
          "172358.542500",
          "172401.052500",
          "172403.562500",
          "172406.072500",
          "172408.582500",
          "172411.092500"
        ],
        "ContentTime": [
          "171723.671000",
          "171726.171000",
          "171728.671000",
          "171731.171000",
          "171733.671000",
          "171736.171000",
          "171738.671000",
          "171741.171000",
          "171743.671000",
          "171746.171000",
          "171748.671000",
          "171751.171000",
          "171753.671000",
          "171756.171000",
          "171758.671000",
          "171801.171000",
          "171803.671000",
          "171806.171000",
          "171808.671000",
          "171811.171000",
          "171813.671000",
          "171816.171000",
          "171818.671000",
          "171821.171000",
          "171823.671000",
          "171826.171000",
          "171828.671000",
          "171831.171000",
          "171833.671000",
          "171836.171000",
          "171838.671000",
          "171841.171000",
          "171843.671000",
          "171846.171000",
          "171848.671000",
          "171851.171000",
          "171853.671000",
          "171856.171000",
          "171858.671000",
          "171901.171000",
          "171903.671000",
          "171906.171000",
          "171908.671000",
          "171911.171000",
          "171913.671000",
          "171916.171000",
          "171918.671000",
          "171921.171000",
          "171923.671000",
          "171926.171000",
          "171928.671000",
          "171931.171000",
          "171933.671000",
          "171936.171000",
          "171938.671000",
          "171941.171000",
          "171943.671000",
          "171946.171000",
          "171948.671000",
          "171951.171000",
          "171953.671000",
          "171956.171000",
          "171958.671000",
          "172001.171000",
          "172003.671000",
          "172006.171000",
          "172008.671000",
          "172011.171000",
          "172013.671000",
          "172016.171000",
          "172018.671000",
          "172021.171000",
          "172023.671000",
          "172026.171000",
          "172028.671000",
          "172031.171000",
          "172033.671000",
          "172036.171000",
          "172038.671000",
          "172041.171000",
          "172043.671000",
          "172046.171000",
          "172048.671000",
          "172051.171000",
          "172053.671000",
          "172056.171000",
          "172058.671000",
          "172101.171000",
          "172103.671000",
          "172106.171000",
          "172108.671000",
          "172111.171000",
          "172113.671000",
          "172116.171000",
          "172118.671000",
          "172121.171000",
          "172123.671000",
          "172126.171000",
          "172128.671000",
          "172131.171000",
          "172133.671000",
          "172136.171000",
          "172138.671000",
          "172141.171000",
          "172143.671000",
          "172146.171000",
          "172148.671000",
          "172151.171000",
          "172153.671000",
          "172156.171000",
          "172158.671000",
          "172201.171000",
          "172203.671000",
          "172206.171000",
          "172208.671000",
          "172211.171000",
          "172213.671000",
          "172216.171000",
          "172218.671000",
          "172221.171000",
          "172223.671000",
          "172226.171000",
          "172228.671000",
          "172231.171000",
          "172233.671000",
          "172236.171000",
          "172238.671000",
          "172241.171000",
          "172243.671000",
          "172246.171000",
          "172248.671000",
          "172251.171000",
          "172253.671000",
          "172256.171000",
          "172258.671000",
          "172301.171000",
          "172303.671000",
          "172306.171000",
          "172308.671000",
          "172311.171000",
          "172313.671000",
          "172316.171000",
          "172318.671000",
          "172321.171000",
          "172323.671000",
          "172326.171000",
          "172328.671000",
          "172331.171000",
          "172333.671000",
          "172336.171000",
          "172338.671000",
          "172341.171000",
          "172343.671000",
          "172346.171000",
          "172348.671000",
          "172351.171000",
          "172353.671000",
          "172356.171000",
          "172358.671000",
          "172401.171000",
          "172403.671000",
          "172406.171000",
          "172408.671000",
          "172411.078000"
        ],
        "InstanceCreationTime": [
          "171723.671000",
          "171726.171000",
          "171728.671000",
          "171731.171000",
          "171733.671000",
          "171736.171000",
          "171738.671000",
          "171741.171000",
          "171743.671000",
          "171746.171000",
          "171748.671000",
          "171751.171000",
          "171753.671000",
          "171756.171000",
          "171758.671000",
          "171801.171000",
          "171803.671000",
          "171806.171000",
          "171808.671000",
          "171811.171000",
          "171813.671000",
          "171816.171000",
          "171818.671000",
          "171821.171000",
          "171823.671000",
          "171826.171000",
          "171828.671000",
          "171831.171000",
          "171833.671000",
          "171836.171000",
          "171838.671000",
          "171841.171000",
          "171843.671000",
          "171846.171000",
          "171848.671000",
          "171851.171000",
          "171853.671000",
          "171856.171000",
          "171858.671000",
          "171901.171000",
          "171903.671000",
          "171906.171000",
          "171908.671000",
          "171911.171000",
          "171913.671000",
          "171916.171000",
          "171918.671000",
          "171921.171000",
          "171923.671000",
          "171926.171000",
          "171928.671000",
          "171931.171000",
          "171933.671000",
          "171936.171000",
          "171938.671000",
          "171941.171000",
          "171943.671000",
          "171946.171000",
          "171948.671000",
          "171951.171000",
          "171953.671000",
          "171956.171000",
          "171958.671000",
          "172001.171000",
          "172003.671000",
          "172006.171000",
          "172008.671000",
          "172011.171000",
          "172013.671000",
          "172016.171000",
          "172018.671000",
          "172021.171000",
          "172023.671000",
          "172026.171000",
          "172028.671000",
          "172031.171000",
          "172033.671000",
          "172036.171000",
          "172038.671000",
          "172041.171000",
          "172043.671000",
          "172046.171000",
          "172048.671000",
          "172051.171000",
          "172053.671000",
          "172056.171000",
          "172058.671000",
          "172101.171000",
          "172103.671000",
          "172106.171000",
          "172108.671000",
          "172111.171000",
          "172113.671000",
          "172116.171000",
          "172118.671000",
          "172121.171000",
          "172123.671000",
          "172126.171000",
          "172128.671000",
          "172131.171000",
          "172133.671000",
          "172136.171000",
          "172138.671000",
          "172141.171000",
          "172143.671000",
          "172146.171000",
          "172148.671000",
          "172151.171000",
          "172153.671000",
          "172156.171000",
          "172158.671000",
          "172201.171000",
          "172203.671000",
          "172206.171000",
          "172208.671000",
          "172211.171000",
          "172213.671000",
          "172216.171000",
          "172218.671000",
          "172221.171000",
          "172223.671000",
          "172226.171000",
          "172228.671000",
          "172231.171000",
          "172233.671000",
          "172236.171000",
          "172238.671000",
          "172241.171000",
          "172243.671000",
          "172246.171000",
          "172248.671000",
          "172251.171000",
          "172253.671000",
          "172256.171000",
          "172258.671000",
          "172301.171000",
          "172303.671000",
          "172306.171000",
          "172308.671000",
          "172311.171000",
          "172313.671000",
          "172316.171000",
          "172318.671000",
          "172321.171000",
          "172323.671000",
          "172326.171000",
          "172328.671000",
          "172331.171000",
          "172333.671000",
          "172336.171000",
          "172338.671000",
          "172341.171000",
          "172343.671000",
          "172346.171000",
          "172348.671000",
          "172351.171000",
          "172353.671000",
          "172356.171000",
          "172358.671000",
          "172401.171000",
          "172403.671000",
          "172406.171000",
          "172408.671000",
          "172411.078000"
        ],
        "InstanceNumber": [
          1,
          2,
          3,
          4,
          5,
          6,
          7,
          8,
          9,
          10,
          11,
          12,
          13,
          14,
          15,
          16,
          17,
          18,
          19,
          20,
          21,
          22,
          23,
          24,
          25,
          26,
          27,
          28,
          29,
          30,
          31,
          32,
          33,
          34,
          35,
          36,
          37,
          38,
          39,
          40,
          41,
          42,
          43,
          44,
          45,
          46,
          47,
          48,
          49,
          50,
          51,
          52,
          53,
          54,
          55,
          56,
          57,
          58,
          59,
          60,
          61,
          62,
          63,
          64,
          65,
          66,
          67,
          68,
          69,
          70,
          71,
          72,
          73,
          74,
          75,
          76,
          77,
          78,
          79,
          80,
          81,
          82,
          83,
          84,
          85,
          86,
          87,
          88,
          89,
          90,
          91,
          92,
          93,
          94,
          95,
          96,
          97,
          98,
          99,
          100,
          101,
          102,
          103,
          104,
          105,
          106,
          107,
          108,
          109,
          110,
          111,
          112,
          113,
          114,
          115,
          116,
          117,
          118,
          119,
          120,
          121,
          122,
          123,
          124,
          125,
          126,
          127,
          128,
          129,
          130,
          131,
          132,
          133,
          134,
          135,
          136,
          137,
          138,
          139,
          140,
          141,
          142,
          143,
          144,
          145,
          146,
          147,
          148,
          149,
          150,
          151,
          152,
          153,
          154,
          155,
          156,
          157,
          158,
          159,
          160,
          161,
          162,
          163,
          164
        ],
        "LargestImagePixelValue": [
          1968,
          1589,
          1313,
          2288,
          1612,
          1280,
          2027,
          1622,
          1235,
          1506,
          1998,
          2140,
          1697,
          1863,
          1575,
          1608,
          1295,
          1555,
          2075,
          1743,
          1410,
          1389,
          1265,
          1698,
          1508,
          1278,
          1248,
          1340,
          1941,
          1558,
          1745,
          1973,
          1294,
          1283,
          1594,
          1294,
          1432,
          2177,
          1734,
          1615,
          1431,
          1285,
          1270,
          1686,
          2187,
          1496,
          1477,
          1442,
          1318,
          1656,
          1785,
          1339,
          1376,
          1282,
          1279,
          1585,
          1668,
          1507,
          1706,
          1805,
          1325,
          1402,
          1291,
          2222,
          1915,
          1829,
          1625,
          1449,
          1329,
          2047,
          1782,
          1632,
          1580,
          1815,
          1879,
          1431,
          1266,
          1265,
          1789,
          2030,
          1504,
          1548,
          1499,
          1285,
          1274,
          1444,
          1364,
          1462,
          2102,
          1508,
          1548,
          1377,
          1398,
          1294,
          1767,
          2097,
          1532,
          2166,
          1719,
          1411,
          1415,
          1684,
          1480,
          1368,
          1482,
          1723,
          1614,
          1507,
          1514,
          1719,
          1840,
          1408,
          1889,
          1567,
          1535,
          1469,
          1330,
          2105,
          1764,
          1376,
          1778,
          1378,
          1597,
          1612,
          1488,
          1270,
          1366,
          1307,
          1962,
          2148,
          1631,
          1328,
          1800,
          1983,
          1442,
          1734,
          1934,
          1945,
          1357,
          1265,
          1265,
          1279,
          1384,
          1740,
          1706,
          2086,
          1392,
          1298,
          1512,
          1292,
          1373,
          1383,
          1595,
          1314,
          1485,
          1534,
          1308,
          1569,
          1839,
          1838,
          1764,
          1300,
          1864,
          2109
        ],
        "WindowCenter": [
          615.0,
          613.0,
          612.0,
          613.0,
          612.0,
          611.0,
          612.0,
          611.0,
          611.0,
          613.0,
          613.0,
          613.0,
          613.0,
          613.0,
          610.0,
          611.0,
          610.0,
          612.0,
          612.0,
          612.0,
          611.0,
          611.0,
          611.0,
          612.0,
          611.0,
          611.0,
          611.0,
          612.0,
          614.0,
          612.0,
          612.0,
          611.0,
          610.0,
          610.0,
          612.0,
          612.0,
          612.0,
          614.0,
          611.0,
          612.0,
          611.0,
          612.0,
          613.0,
          614.0,
          614.0,
          613.0,
          613.0,
          612.0,
          611.0,
          613.0,
          613.0,
          612.0,
          612.0,
          612.0,
          610.0,
          613.0,
          613.0,
          613.0,
          612.0,
          613.0,
          612.0,
          612.0,
          613.0,
          614.0,
          614.0,
          613.0,
          613.0,
          612.0,
          611.0,
          614.0,
          613.0,
          612.0,
          612.0,
          612.0,
          611.0,
          611.0,
          610.0,
          611.0,
          612.0,
          613.0,
          612.0,
          611.0,
          611.0,
          611.0,
          611.0,
          611.0,
          611.0,
          612.0,
          613.0,
          611.0,
          612.0,
          611.0,
          611.0,
          612.0,
          613.0,
          614.0,
          612.0,
          614.0,
          612.0,
          611.0,
          612.0,
          611.0,
          611.0,
          610.0,
          611.0,
          612.0,
          612.0,
          612.0,
          612.0,
          614.0,
          614.0,
          613.0,
          615.0,
          614.0,
          613.0,
          611.0,
          612.0,
          615.0,
          613.0,
          612.0,
          613.0,
          612.0,
          612.0,
          612.0,
          612.0,
          612.0,
          612.0,
          613.0,
          615.0,
          615.0,
          611.0,
          612.0,
          613.0,
          614.0,
          612.0,
          613.0,
          613.0,
          613.0,
          611.0,
          612.0,
          612.0,
          613.0,
          612.0,
          614.0,
          614.0,
          613.0,
          612.0,
          611.0,
          612.0,
          611.0,
