{
  "aor": 0.008025121951219513,
  "aqi": 0.014782325487804879,
  "bids_meta": {
    "AcquisitionMatrixPE": 64,
    "AcquisitionNumber": 1,
    "AcquisitionTime": "16:42:36.300000",
    "BandwidthPerPixelPhaseEncode": 26.483,
    "BaseResolution": 64,
    "BodyPartExamined": "HEAD",
    "CogAtlasID": "TODO",
    "ConversionSoftware": "dcm2niix",
    "ConversionSoftwareVersion": "v1.0.20171017 GCC6.3.0",
    "DerivedVendorReportedEchoSpacing": 0.000590001,
    "DeviceSerialNumber": "35177",
    "DwellTime": 4.1e-06,
    "EchoTime": 0.027,
    "EffectiveEchoSpacing": 0.000590001,
    "FlipAngle": 90,
    "ImageOrientationPatientDICOM": [
      0.98811,
      -0.136615,
      0.0705323,
      0.121674,
      0.975279,
      0.184462
    ],
    "ImageType": [
      "ORIGINAL",
      "PRIMARY",
      "M",
      "ND",
      "NORM",
      "MOSAIC"
    ],
    "InPlanePhaseEncodingDirectionDICOM": "COL",
    "InstitutionAddress": "Scott_Ave._4525_St._Louis_MO_US_63110",
    "InstitutionName": "Washington_University",
    "InstitutionalDepartmentName": "Department",
    "MRAcquisitionType": "2D",
    "MagneticFieldStrength": 3,
    "Manufacturer": "Siemens",
    "ManufacturersModelName": "TrioTim",
    "Modality": "MR",
    "PartialFourier": 1,
    "PatientPosition": "HFS",
    "PercentPhaseFOV": 100,
    "PhaseEncodingDirection": "j-",
    "PhaseEncodingSteps": 64,
    "PhaseResolution": 1,
    "PixelBandwidth": 1905,
    "ProcedureStepDescription": "head_GREENE",
    "ProtocolName": "ep2d_bold_feedback_movie_1A",
    "PulseSequenceDetails": "%SiemensSeq%_ep2d_bold",
    "ReceiveCoilName": "HeadMatrix",
    "ReconMatrixPE": 64,
    "RepetitionTime": 2.5,
    "SAR": 0.162901,
    "ScanOptions": "FS",
    "ScanningSequence": "EP",
    "SequenceName": "_epfid2d1_64",
    "SequenceVariant": "SK",
    "SeriesDescription": "ep2d_bold_feedback_movie_1A",
    "SeriesNumber": 6,
    "ShimSetting": [
      -188,
      -19713,
      8012,
      403,
      38,
      -813,
      507,
      175
    ],
    "SliceThickness": 4,
    "SliceTiming": [
      1.255,
      0,
      1.3325,
      0.0775,
      1.41,
      0.155,
      1.49,
      0.235,
      1.5675,
      0.3125,
      1.645,
      0.39,
      1.725,
      0.47,
      1.8025,
      0.5475,
      1.88,
      0.6275,
      1.96,
      0.705,
      2.0375,
      0.7825,
      2.1175,
      0.8625,
      2.195,
      0.94,
      2.2725,
      1.0175,
      2.3525,
      1.0975,
      2.43,
      1.175
    ],
    "SoftwareVersions": "syngo_MR_B17",
    "SpacingBetweenSlices": 4,
    "StationName": "MRC35177",
    "TaskName": "restmoviefixed",
    "TotalReadoutTime": 0.0371701,
    "TxRefAmp": 327.701,
    "dataset": "ds000256",
    "dcmmeta_affine": [
      [
        -3.9524402618408203,
        0.48669642210006714,
        0.37595611810684204,
        106.07947540283203
      ],
      [
        0.5464608669281006,
        3.901115894317627,
        0.6947482228279114,
        -157.6194610595703
      ],
      [
        0.2821291387081146,
        -0.7378488183021545,
        3.9212231636047363,
        -2.2691659927368164
      ],
      [
        0.0,
        0.0,
        0.0,
        1.0
      ]
    ],
    "dcmmeta_reorient_transform": [
      [
        0.0,
        -1.0,
        0.0,
        63.0
      ],
      [
        1.0,
        0.0,
        0.0,
        0.0
      ],
      [
        0.0,
        0.0,
        1.0,
        0.0
      ],
      [
        0.0,
        0.0,
        0.0,
        1.0
      ]
    ],
    "dcmmeta_shape": [
      64,
      64,
      32,
      164
    ],
    "dcmmeta_slice_dim": 2,
    "dcmmeta_version": 0.6,
    "global": {
      "const": {
        "AccessionNumber": ".",
        "AcquisitionMatrix": [
          64,
          0,
          0,
          64
        ],
        "AngioFlag": "N",
        "BitsAllocated": 16,
        "BitsStored": 12,
        "BodyPartExamined": "HEAD",
        "Columns": 384,
        "DeidentificationMethodCodeSequence": [
          {
            "CodeMeaning": "XNAT Edit Script",
            "CodeValue": "625500",
            "CodingSchemeDesignator": "XNAT",
            "CodingSchemeVersion": "0.1"
          }
        ],
        "EchoNumbers": 1,
        "EchoTime": 27.0,
        "EchoTrainLength": 1,
        "FlipAngle": 90.0,
        "HighBit": 11,
        "ImageOrientationPatient": [
          0.98811005484135,
          -0.1366152136366,
          0.07053228285303,
          0.12167410539309,
          0.97527898910252,
          0.18446220613435
        ],
        "ImagePositionPatient": [
          -847.00320991738,
          -624.89566134801,
          -211.95011500019
        ],
        "ImageType": [
          "ORIGINAL",
          "PRIMARY",
          "M",
          "ND",
          "NORM",
          "MOSAIC"
        ],
        "ImagedNucleus": "1H",
        "ImagingFrequency": 123.255781,
        "InPlanePhaseEncodingDirection": "COL",
        "MRAcquisitionType": "2D",
        "MagneticFieldStrength": 3.0,
        "Manufacturer": "SIEMENS",
        "ManufacturerModelName": "TrioTim",
        "Modality": "MR",
        "NumberOfAverages": 1.0,
        "NumberOfPhaseEncodingSteps": 64,
        "PercentPhaseFieldOfView": 100.0,
        "PercentSampling": 100.0,
        "PerformedProcedureStepStartTime": "162758.078000",
        "PhotometricInterpretation": "MONOCHROME2",
        "PixelBandwidth": 1905.0,
        "PixelRepresentation": 0,
        "PixelSpacing": [
          4.0,
          4.0
        ],
        "PositionReferenceIndicator": "",
        "ProtocolName": "ep2d_bold_feedback_movie_1A",
        "RepetitionTime": 2500.0,
        "Rows": 384,
        "SAR": 0.16290080852846,
        "SamplesPerPixel": 1,
        "ScanOptions": "FS",
        "ScanningSequence": "EP",
        "SequenceName": "*epfid2d1_64",
        "SequenceVariant": "SK",
        "SeriesDescription": "ep2d_bold_feedback_movie_1A",
        "SeriesNumber": 6,
        "SeriesTime": "164238.765000",
        "SliceLocation": -19.630625234242,
        "SliceThickness": 4.0,
        "SmallestImagePixelValue": 0,
        "SoftwareVersions": "syngo MR B17",
        "SpacingBetweenSlices": 4.0000012295781,
        "SpecificCharacterSet": "ISO_IR 100",
        "StudyID": "1",
        "StudyTime": "162758.015000",
        "TransmitCoilName": "Body",
        "VariableFlipAngleFlag": "N",
        "WindowCenterWidthExplanation": "Algo1",
        "dBdt": 0.0
      },
      "slices": {}
    },
    "modality": "bold",
    "subject_id": "CTS202",
    "task_id": "restmoviefixed",
    "time": {
      "samples": {
        "AcquisitionNumber": [
          1,
          2,
          3,
          4,
          5,
          6,
          7,
          8,
          9,
          10,
          11,
          12,
          13,
          14,
          15,
          16,
          17,
          18,
          19,
          20,
          21,
          22,
          23,
          24,
          25,
          26,
          27,
          28,
          29,
          30,
          31,
          32,
          33,
          34,
          35,
          36,
          37,
          38,
          39,
          40,
          41,
          42,
          43,
          44,
          45,
          46,
          47,
          48,
          49,
          50,
          51,
          52,
          53,
          54,
          55,
          56,
          57,
          58,
          59,
          60,
          61,
          62,
          63,
          64,
          65,
          66,
          67,
          68,
          69,
          70,
          71,
          72,
          73,
          74,
          75,
          76,
          77,
          78,
          79,
          80,
          81,
          82,
          83,
          84,
          85,
          86,
          87,
          88,
          89,
          90,
          91,
          92,
          93,
          94,
          95,
          96,
          97,
          98,
          99,
          100,
          101,
          102,
          103,
          104,
          105,
          106,
          107,
          108,
          109,
          110,
          111,
          112,
          113,
          114,
          115,
          116,
          117,
          118,
          119,
          120,
          121,
          122,
          123,
          124,
          125,
          126,
          127,
          128,
          129,
          130,
          131,
          132,
          133,
          134,
          135,
          136,
          137,
          138,
          139,
          140,
          141,
          142,
          143,
          144,
          145,
          146,
          147,
          148,
          149,
          150,
          151,
          152,
          153,
          154,
          155,
          156,
          157,
          158,
          159,
          160,
          161,
          162,
          163,
          164
        ],
        "AcquisitionTime": [
          "164236.300000",
          "164238.810000",
          "164241.320000",
          "164243.830000",
          "164246.340000",
          "164248.850000",
          "164251.360000",
          "164253.870000",
          "164256.380000",
          "164258.890000",
          "164301.400000",
          "164303.910000",
          "164306.420000",
          "164308.930000",
          "164311.440000",
          "164313.950000",
          "164316.460000",
          "164318.970000",
          "164321.480000",
          "164323.990000",
          "164326.500000",
          "164329.010000",
          "164331.520000",
          "164334.030000",
          "164336.540000",
          "164339.050000",
          "164341.560000",
          "164344.070000",
          "164346.580000",
          "164349.090000",
          "164351.600000",
          "164354.110000",
          "164356.620000",
          "164359.130000",
          "164401.640000",
          "164404.150000",
          "164406.660000",
          "164409.170000",
          "164411.680000",
          "164414.190000",
          "164416.700000",
          "164419.210000",
          "164421.720000",
          "164424.230000",
          "164426.740000",
          "164429.250000",
          "164431.760000",
          "164434.270000",
          "164436.780000",
          "164439.290000",
          "164441.800000",
          "164444.310000",
          "164446.820000",
          "164449.330000",
          "164451.840000",
          "164454.350000",
          "164456.860000",
          "164459.370000",
          "164501.880000",
          "164504.390000",
          "164506.900000",
          "164509.412500",
          "164511.922500",
          "164514.432500",
          "164516.942500",
          "164519.452500",
          "164521.962500",
          "164524.472500",
          "164526.982500",
          "164529.492500",
          "164532.002500",
          "164534.512500",
          "164537.022500",
          "164539.532500",
          "164542.042500",
          "164544.552500",
          "164547.062500",
          "164549.572500",
          "164552.082500",
          "164554.592500",
          "164557.102500",
          "164559.612500",
          "164602.122500",
          "164604.632500",
          "164607.142500",
          "164609.652500",
          "164612.162500",
          "164614.672500",
          "164617.182500",
          "164619.692500",
          "164622.202500",
          "164624.712500",
          "164627.222500",
          "164629.732500",
          "164632.242500",
          "164634.752500",
          "164637.262500",
          "164639.772500",
          "164642.282500",
          "164644.792500",
          "164647.302500",
          "164649.812500",
          "164652.322500",
          "164654.832500",
          "164657.342500",
          "164659.852500",
          "164702.362500",
          "164704.872500",
          "164707.382500",
          "164709.892500",
          "164712.402500",
          "164714.912500",
          "164717.422500",
          "164719.932500",
          "164722.442500",
          "164724.952500",
          "164727.462500",
          "164729.972500",
          "164732.482500",
          "164734.992500",
          "164737.502500",
          "164740.012500",
          "164742.522500",
          "164745.035000",
          "164747.545000",
          "164750.055000",
          "164752.565000",
          "164755.075000",
          "164757.585000",
          "164800.095000",
          "164802.605000",
          "164805.115000",
          "164807.625000",
          "164810.135000",
          "164812.645000",
          "164815.155000",
          "164817.665000",
          "164820.175000",
          "164822.685000",
          "164825.195000",
          "164827.705000",
          "164830.215000",
          "164832.725000",
          "164835.235000",
          "164837.745000",
          "164840.255000",
          "164842.765000",
          "164845.275000",
          "164847.785000",
          "164850.295000",
          "164852.805000",
          "164855.315000",
          "164857.825000",
          "164900.335000",
          "164902.845000",
          "164905.355000",
          "164907.865000",
          "164910.375000",
          "164912.885000",
          "164915.395000",
          "164917.905000",
          "164920.415000",
          "164922.925000",
          "164925.435000"
        ],
        "ContentTime": [
          "164238.765000",
          "164241.265000",
          "164243.765000",
          "164246.265000",
          "164248.765000",
          "164251.265000",
          "164253.765000",
          "164256.265000",
          "164258.765000",
          "164301.265000",
          "164303.765000",
          "164306.265000",
          "164308.765000",
          "164311.265000",
          "164313.765000",
          "164316.265000",
          "164318.765000",
          "164321.265000",
          "164323.765000",
          "164326.265000",
          "164328.765000",
          "164331.265000",
          "164333.765000",
          "164336.265000",
          "164338.765000",
          "164341.265000",
          "164343.765000",
          "164346.265000",
          "164348.765000",
          "164351.265000",
          "164353.765000",
          "164356.265000",
          "164358.765000",
          "164401.265000",
          "164403.765000",
          "164406.265000",
          "164408.765000",
          "164411.265000",
          "164413.765000",
          "164416.265000",
          "164418.765000",
          "164421.265000",
          "164423.765000",
          "164426.265000",
          "164428.765000",
          "164431.265000",
          "164433.765000",
          "164436.265000",
          "164438.765000",
          "164441.265000",
          "164443.765000",
          "164446.265000",
          "164448.765000",
          "164451.265000",
          "164453.765000",
          "164456.265000",
          "164458.765000",
          "164501.265000",
          "164503.765000",
          "164506.265000",
          "164508.765000",
          "164511.265000",
          "164513.765000",
          "164516.265000",
          "164518.765000",
          "164521.265000",
          "164523.765000",
          "164526.265000",
          "164528.765000",
          "164531.265000",
          "164533.765000",
          "164536.265000",
          "164538.765000",
          "164541.265000",
          "164543.765000",
          "164546.265000",
          "164548.765000",
          "164551.265000",
          "164553.765000",
          "164556.265000",
          "164558.765000",
          "164601.265000",
          "164603.765000",
          "164606.265000",
          "164608.765000",
          "164611.265000",
          "164613.765000",
          "164616.265000",
          "164618.765000",
          "164621.265000",
          "164623.765000",
          "164626.265000",
          "164628.765000",
          "164631.265000",
          "164633.765000",
          "164636.265000",
          "164638.765000",
          "164641.265000",
          "164643.765000",
          "164646.265000",
          "164648.765000",
          "164651.265000",
          "164653.765000",
          "164656.265000",
          "164658.765000",
          "164701.265000",
          "164703.765000",
          "164706.265000",
          "164708.765000",
          "164711.265000",
          "164713.765000",
          "164716.265000",
          "164718.765000",
          "164721.265000",
          "164723.765000",
          "164726.265000",
          "164728.765000",
          "164731.265000",
          "164733.765000",
          "164736.265000",
          "164738.765000",
          "164741.265000",
          "164743.765000",
          "164746.265000",
          "164748.765000",
          "164751.265000",
          "164753.765000",
          "164756.265000",
          "164758.765000",
          "164801.265000",
          "164803.765000",
          "164806.265000",
          "164808.765000",
          "164811.265000",
          "164813.765000",
          "164816.265000",
          "164818.765000",
          "164821.265000",
          "164823.765000",
          "164826.265000",
          "164828.765000",
          "164831.265000",
          "164833.765000",
          "164836.265000",
          "164838.765000",
          "164841.265000",
          "164843.765000",
          "164846.265000",
          "164848.765000",
          "164851.265000",
          "164853.765000",
          "164856.265000",
          "164858.765000",
          "164901.265000",
          "164903.765000",
          "164906.265000",
          "164908.765000",
          "164911.265000",
          "164913.765000",
          "164916.265000",
          "164918.765000",
          "164921.265000",
          "164923.765000",
          "164925.812000"
        ],
        "InstanceCreationTime": [
          "164238.765000",
          "164241.265000",
          "164243.765000",
          "164246.265000",
          "164248.765000",
          "164251.265000",
          "164253.765000",
          "164256.265000",
          "164258.765000",
          "164301.265000",
          "164303.765000",
          "164306.265000",
          "164308.765000",
          "164311.265000",
          "164313.765000",
          "164316.265000",
          "164318.765000",
          "164321.265000",
          "164323.765000",
          "164326.265000",
          "164328.765000",
          "164331.265000",
          "164333.765000",
          "164336.265000",
          "164338.765000",
          "164341.265000",
          "164343.765000",
          "164346.265000",
          "164348.765000",
          "164351.265000",
          "164353.765000",
          "164356.265000",
          "164358.765000",
          "164401.265000",
          "164403.765000",
          "164406.265000",
          "164408.765000",
          "164411.265000",
          "164413.765000",
          "164416.265000",
          "164418.765000",
          "164421.265000",
          "164423.765000",
          "164426.265000",
          "164428.765000",
          "164431.265000",
          "164433.765000",
          "164436.265000",
          "164438.765000",
          "164441.265000",
          "164443.765000",
          "164446.265000",
          "164448.765000",
          "164451.265000",
          "164453.765000",
          "164456.265000",
          "164458.765000",
          "164501.265000",
          "164503.765000",
          "164506.265000",
          "164508.765000",
          "164511.265000",
          "164513.765000",
          "164516.265000",
          "164518.765000",
          "164521.265000",
          "164523.765000",
          "164526.265000",
          "164528.765000",
          "164531.265000",
          "164533.765000",
          "164536.265000",
          "164538.765000",
          "164541.265000",
          "164543.765000",
          "164546.265000",
          "164548.765000",
          "164551.265000",
          "164553.765000",
          "164556.265000",
          "164558.765000",
          "164601.265000",
          "164603.765000",
          "164606.265000",
          "164608.765000",
          "164611.265000",
          "164613.765000",
          "164616.265000",
          "164618.765000",
          "164621.265000",
          "164623.765000",
          "164626.265000",
          "164628.765000",
          "164631.265000",
          "164633.765000",
          "164636.265000",
          "164638.765000",
          "164641.265000",
          "164643.765000",
          "164646.265000",
          "164648.765000",
          "164651.265000",
          "164653.765000",
          "164656.265000",
          "164658.765000",
          "164701.265000",
          "164703.765000",
          "164706.265000",
          "164708.765000",
          "164711.265000",
          "164713.765000",
          "164716.265000",
          "164718.765000",
          "164721.265000",
          "164723.765000",
          "164726.265000",
          "164728.765000",
          "164731.265000",
          "164733.765000",
          "164736.265000",
          "164738.765000",
          "164741.265000",
          "164743.765000",
          "164746.265000",
          "164748.765000",
          "164751.265000",
          "164753.765000",
          "164756.265000",
          "164758.765000",
          "164801.265000",
          "164803.765000",
          "164806.265000",
          "164808.765000",
          "164811.265000",
          "164813.765000",
          "164816.265000",
          "164818.765000",
          "164821.265000",
          "164823.765000",
          "164826.265000",
          "164828.765000",
          "164831.265000",
          "164833.765000",
          "164836.265000",
          "164838.765000",
          "164841.265000",
          "164843.765000",
          "164846.265000",
          "164848.765000",
          "164851.265000",
          "164853.765000",
          "164856.265000",
          "164858.765000",
          "164901.265000",
          "164903.765000",
          "164906.265000",
          "164908.765000",
          "164911.265000",
          "164913.765000",
          "164916.265000",
          "164918.765000",
          "164921.265000",
          "164923.765000",
          "164925.812000"
        ],
        "InstanceNumber": [
          1,
          2,
          3,
          4,
          5,
          6,
          7,
          8,
          9,
          10,
          11,
          12,
          13,
          14,
          15,
          16,
          17,
          18,
          19,
          20,
          21,
          22,
          23,
          24,
          25,
          26,
          27,
          28,
          29,
          30,
          31,
          32,
          33,
          34,
          35,
          36,
          37,
          38,
          39,
          40,
          41,
          42,
          43,
          44,
          45,
          46,
          47,
          48,
          49,
          50,
          51,
          52,
          53,
          54,
          55,
          56,
          57,
          58,
          59,
          60,
          61,
          62,
          63,
          64,
          65,
          66,
          67,
          68,
          69,
          70,
          71,
          72,
          73,
          74,
          75,
          76,
          77,
          78,
          79,
          80,
          81,
          82,
          83,
          84,
          85,
          86,
          87,
          88,
          89,
          90,
          91,
          92,
          93,
          94,
          95,
          96,
          97,
          98,
          99,
          100,
          101,
          102,
          103,
          104,
          105,
          106,
          107,
          108,
          109,
          110,
          111,
          112,
          113,
          114,
          115,
          116,
          117,
          118,
          119,
          120,
          121,
          122,
          123,
          124,
          125,
          126,
          127,
          128,
          129,
          130,
          131,
          132,
          133,
          134,
          135,
          136,
          137,
          138,
          139,
          140,
          141,
          142,
          143,
          144,
          145,
          146,
          147,
          148,
          149,
          150,
          151,
          152,
          153,
          154,
          155,
          156,
          157,
          158,
          159,
          160,
          161,
          162,
          163,
          164
        ],
        "LargestImagePixelValue": [
          1439,
          1563,
          1613,
          1407,
          1284,
          1608,
          1274,
          1272,
          1419,
          1746,
          1287,
          1267,
          1611,
          1621,
          1692,
          1507,
          1514,
          1265,
          1216,
          1707,
          1779,
          1277,
          1858,
          1915,
          1769,
          1345,
          1267,
          1295,
          1385,
          1311,
          1511,
          1689,
          1537,
          1769,
          1440,
          1543,
          1718,
          1554,
          1611,
          1281,
          1357,
          1625,
          1702,
          1397,
          1481,
          1288,
          1292,
          1671,
          1921,
          1246,
          1388,
          1276,
          1910,
          1455,
          1329,
          1478,
          1526,
          1366,
          1438,
          1305,
          1262,
          1391,
          1531,
          1567,
          1479,
          1335,
          1227,
          1244,
          1676,
          1329,
          1378,
          1408,
          1357,
          1543,
          2006,
          1597,
          1291,
          1381,
          1282,
          1859,
          1614,
          1508,
          1546,
          1501,
          1520,
          1332,
          1461,
          1307,
          1384,
          1419,
          1431,
          1558,
          1359,
          1605,
          1385,
          1403,
          1400,
          1461,
          1586,
          1473,
          1361,
          1610,
          1456,
          1644,
          1226,
          1338,
          1762,
          1635,
          1357,
          1683,
          1301,
          1470,
          1490,
          1401,
          1238,
          1277,
          1412,
          1279,
          1422,
          1872,
          1544,
          1605,
          1704,
          1404,
          1308,
          1828,
          1724,
          1622,
          1343,
          1743,
          1514,
          1413,
          1393,
          1504,
          1169,
          1364,
          1420,
          1441,
          1764,
          2128,
          1648,
          1626,
          1930,
          1252,
          1366,
          1241,
          1676,
          1609,
          1725,
          1620,
          1581,
          1547,
          1912,
          1269,
          1276,
          1494,
          1963,
          1955,
          1315,
          1239,
          1486,
          1177,
          1276,
          1257
        ],
        "WindowCenter": [
          604.0,
          605.0,
          603.0,
          602.0,
          603.0,
          606.0,
          602.0,
          605.0,
          603.0,
          605.0,
          602.0,
          603.0,
          604.0,
          605.0,
          605.0,
          603.0,
          604.0,
          603.0,
          603.0,
          603.0,
          602.0,
          603.0,
          604.0,
          604.0,
          607.0,
          602.0,
          607.0,
          604.0,
          604.0,
          603.0,
          605.0,
          610.0,
          605.0,
          605.0,
          604.0,
          603.0,
          607.0,
          603.0,
          603.0,
          603.0,
          604.0,
          604.0,
          603.0,
          602.0,
          603.0,
          603.0,
          603.0,
          604.0,
          603.0,
          602.0,
          604.0,
          604.0,
          603.0,
          604.0,
          604.0,
          604.0,
          603.0,
          601.0,
          604.0,
          604.0,
          602.0,
          604.0,
          603.0,
          602.0,
          603.0,
          602.0,
          598.0,
          603.0,
          605.0,
          603.0,
          605.0,
          605.0,
          605.0,
          604.0,
          605.0,
          604.0,
          602.0,
          607.0,
          603.0,
          605.0,
          604.0,
          605.0,
          604.0,
          608.0,
          603.0,
          604.0,
          604.0,
          603.0,
          604.0,
          603.0,
          603.0,
          603.0,
          604.0,
          603.0,
          604.0,
          605.0,
          605.0,
          605.0,
          605.0,
          609.0,
          603.0,
          605.0,
          605.0,
          605.0,
          603.0,
          604.0,
          606.0,
          602.0,
          607.0,
          603.0,
          603.0,
          609.0,
          604.0,
          603.0,
          607.0,
          604.0,
          605.0,
          604.0,
          609.0,
          605.0,
          604.0,
          605.0,
          605.0,
          605.0,
          604.0,
          610.0,
          605.0,
          604.0,
          602.0,
          606.0,
          601.0,
          601.0,
          602.0,
          608.0,
          603.0,
          605.0,
          603.0,
          605.0,
          606.0,
          608.0,
          605.0,
          604.0,
          609.0,
          606.0,
          603.0,
          603.0,
          605.0,
          605.0,
