{
  "aor": 0.004284268292682927,
  "aqi": 0.006884853048780487,
  "bids_meta": {
    "AcquisitionMatrixPE": 64,
    "AcquisitionNumber": 1,
    "AcquisitionTime": "07:36:40.705000",
    "BandwidthPerPixelPhaseEncode": 26.483,
    "BaseResolution": 64,
    "BodyPartExamined": "HEAD",
    "CogAtlasID": "TODO",
    "ConversionSoftware": "dcm2niix",
    "ConversionSoftwareVersion": "v1.0.20171017 GCC6.3.0",
    "DerivedVendorReportedEchoSpacing": 0.000590001,
    "DeviceSerialNumber": "35177",
    "DwellTime": 4.1e-06,
    "EchoTime": 0.027,
    "EffectiveEchoSpacing": 0.000590001,
    "FlipAngle": 90,
    "ImageOrientationPatientDICOM": [
      0.998266,
      -0.0582745,
      0.00832889,
      0.0545896,
      0.969368,
      0.239469
    ],
    "ImageType": [
      "ORIGINAL",
      "PRIMARY",
      "M",
      "ND",
      "NORM",
      "MOSAIC"
    ],
    "InPlanePhaseEncodingDirectionDICOM": "COL",
    "InstitutionAddress": "Scott_Ave._4525_St._Louis_MO_US_63110",
    "InstitutionName": "Washington_University",
    "InstitutionalDepartmentName": "Department",
    "MRAcquisitionType": "2D",
    "MagneticFieldStrength": 3,
    "Manufacturer": "Siemens",
    "ManufacturersModelName": "TrioTim",
    "Modality": "MR",
    "PartialFourier": 1,
    "PatientPosition": "HFS",
    "PercentPhaseFOV": 100,
    "PhaseEncodingDirection": "j-",
    "PhaseEncodingSteps": 64,
    "PhaseResolution": 1,
    "PixelBandwidth": 1905,
    "ProcedureStepDescription": "head_GREENE",
    "ProtocolName": "ep2d_bold_rest1",
    "PulseSequenceDetails": "%SiemensSeq%_ep2d_bold",
    "ReceiveCoilName": "HeadMatrix",
    "ReconMatrixPE": 64,
    "RepetitionTime": 2.5,
    "SAR": 0.146205,
    "ScanOptions": "FS",
    "ScanningSequence": "EP",
    "SequenceName": "_epfid2d1_64",
    "SequenceVariant": "SK",
    "SeriesDescription": "ep2d_bold_rest1",
    "SeriesNumber": 5,
    "ShimSetting": [
      -205,
      -19647,
      8001,
      289,
      69,
      -217,
      540,
      94
    ],
    "SliceThickness": 4,
    "SliceTiming": [
      1.255,
      0,
      1.335,
      0.08,
      1.4125,
      0.1575,
      1.49,
      0.235,
      1.57,
      0.315,
      1.6475,
      0.3925,
      1.725,
      0.4725,
      1.805,
      0.55,
      1.8825,
      0.6275,
      1.9625,
      0.7075,
      2.04,
      0.785,
      2.1175,
      0.8625,
      2.1975,
      0.9425,
      2.275,
      1.02,
      2.3525,
      1.0975,
      2.4325,
      1.1775
    ],
    "SoftwareVersions": "syngo_MR_B17",
    "SpacingBetweenSlices": 4,
    "StationName": "MRC35177",
    "TaskName": "restbaseline",
    "TotalReadoutTime": 0.0371701,
    "TxRefAmp": 345.131,
    "dataset": "ds000256",
    "dcmmeta_affine": [
      [
        -3.993063449859619,
        0.21835851669311523,
        0.0881146714091301,
        126.60234832763672
      ],
      [
        0.2330980896949768,
        3.8774728775024414,
        0.9543942809104919,
        -147.8131866455078
      ],
      [
        0.03331556171178818,
        -0.9578748345375061,
        3.8834705352783203,
        12.151058197021484
      ],
      [
        0.0,
        0.0,
        0.0,
        1.0
      ]
    ],
    "dcmmeta_reorient_transform": [
      [
        0.0,
        -1.0,
        0.0,
        63.0
      ],
      [
        1.0,
        0.0,
        0.0,
        0.0
      ],
      [
        0.0,
        0.0,
        1.0,
        0.0
      ],
      [
        0.0,
        0.0,
        0.0,
        1.0
      ]
    ],
    "dcmmeta_shape": [
      64,
      64,
      32,
      164
    ],
    "dcmmeta_slice_dim": 2,
    "dcmmeta_version": 0.6,
    "global": {
      "const": {
        "AccessionNumber": ".",
        "AcquisitionMatrix": [
          64,
          0,
          0,
          64
        ],
        "AngioFlag": "N",
        "BitsAllocated": 16,
        "BitsStored": 12,
        "BodyPartExamined": "HEAD",
        "Columns": 384,
        "DeidentificationMethodCodeSequence": [
          {
            "CodeMeaning": "XNAT Edit Script",
            "CodeValue": "625500",
            "CodingSchemeDesignator": "XNAT",
            "CodingSchemeVersion": "0.1"
          }
        ],
        "EchoNumbers": 1,
        "EchoTime": 27.0,
        "EchoTrainLength": 1,
        "FlipAngle": 90.0,
        "HighBit": 11,
        "ImageOrientationPatient": [
          0.99826585116008,
          -0.0582745227024,
          0.0083288901684,
          0.05458962735144,
          0.96936820282353,
          0.23946870346732
        ],
        "ImagePositionPatient": [
          -814.18644421483,
          -679.5675510846,
          -206.78551495544
        ],
        "ImageType": [
          "ORIGINAL",
          "PRIMARY",
          "M",
          "ND",
          "NORM",
          "MOSAIC"
        ],
        "ImagedNucleus": "1H",
        "ImagingFrequency": 123.255922,
        "InPlanePhaseEncodingDirection": "COL",
        "MRAcquisitionType": "2D",
        "MagneticFieldStrength": 3.0,
        "Manufacturer": "SIEMENS",
        "ManufacturerModelName": "TrioTim",
        "Modality": "MR",
        "NumberOfAverages": 1.0,
        "NumberOfPhaseEncodingSteps": 64,
        "PercentPhaseFieldOfView": 100.0,
        "PercentSampling": 100.0,
        "PerformedProcedureStepStartTime": "073131.609000",
        "PhotometricInterpretation": "MONOCHROME2",
        "PixelBandwidth": 1905.0,
        "PixelRepresentation": 0,
        "PixelSpacing": [
          4.0,
          4.0
        ],
        "PositionReferenceIndicator": "",
        "ProtocolName": "ep2d_bold_rest1",
        "RepetitionTime": 2500.0,
        "Rows": 384,
        "SAR": 0.14620518365407,
        "SamplesPerPixel": 1,
        "ScanOptions": "FS",
        "ScanningSequence": "EP",
        "SequenceName": "*epfid2d1_64",
        "SequenceVariant": "SK",
        "SeriesDescription": "ep2d_bold_rest1",
        "SeriesNumber": 5,
        "SeriesTime": "073643.093000",
        "SliceLocation": -20.682082483044,
        "SliceThickness": 4.0,
        "SmallestImagePixelValue": 0,
        "SoftwareVersions": "syngo MR B17",
        "SpacingBetweenSlices": 3.9999969294343,
        "SpecificCharacterSet": "ISO_IR 100",
        "StudyID": "1",
        "StudyTime": "073131.562000",
        "TransmitCoilName": "Body",
        "VariableFlipAngleFlag": "N",
        "WindowCenterWidthExplanation": "Algo1",
        "dBdt": 0.0
      },
      "slices": {}
    },
    "modality": "bold",
    "subject_id": "CTS230",
    "task_id": "restbaseline",
    "time": {
      "samples": {
        "AcquisitionNumber": [
          1,
          2,
          3,
          4,
          5,
          6,
          7,
          8,
          9,
          10,
          11,
          12,
          13,
          14,
          15,
          16,
          17,
          18,
          19,
          20,
          21,
          22,
          23,
          24,
          25,
          26,
          27,
          28,
          29,
          30,
          31,
          32,
          33,
          34,
          35,
          36,
          37,
          38,
          39,
          40,
          41,
          42,
          43,
          44,
          45,
          46,
          47,
          48,
          49,
          50,
          51,
          52,
          53,
          54,
          55,
          56,
          57,
          58,
          59,
          60,
          61,
          62,
          63,
          64,
          65,
          66,
          67,
          68,
          69,
          70,
          71,
          72,
          73,
          74,
          75,
          76,
          77,
          78,
          79,
          80,
          81,
          82,
          83,
          84,
          85,
          86,
          87,
          88,
          89,
          90,
          91,
          92,
          93,
          94,
          95,
          96,
          97,
          98,
          99,
          100,
          101,
          102,
          103,
          104,
          105,
          106,
          107,
          108,
          109,
          110,
          111,
          112,
          113,
          114,
          115,
          116,
          117,
          118,
          119,
          120,
          121,
          122,
          123,
          124,
          125,
          126,
          127,
          128,
          129,
          130,
          131,
          132,
          133,
          134,
          135,
          136,
          137,
          138,
          139,
          140,
          141,
          142,
          143,
          144,
          145,
          146,
          147,
          148,
          149,
          150,
          151,
          152,
          153,
          154,
          155,
          156,
          157,
          158,
          159,
          160,
          161,
          162,
          163,
          164
        ],
        "AcquisitionTime": [
          "073640.705000",
          "073643.215000",
          "073645.725000",
          "073648.235000",
          "073650.745000",
          "073653.255000",
          "073655.765000",
          "073658.275000",
          "073700.785000",
          "073703.295000",
          "073705.805000",
          "073708.315000",
          "073710.825000",
          "073713.335000",
          "073715.845000",
          "073718.355000",
          "073720.865000",
          "073723.377500",
          "073725.887500",
          "073728.397500",
          "073730.907500",
          "073733.417500",
          "073735.927500",
          "073738.437500",
          "073740.947500",
          "073743.457500",
          "073745.967500",
          "073748.477500",
          "073750.987500",
          "073753.497500",
          "073756.007500",
          "073758.517500",
          "073801.027500",
          "073803.537500",
          "073806.047500",
          "073808.557500",
          "073811.067500",
          "073813.577500",
          "073816.087500",
          "073818.597500",
          "073821.107500",
          "073823.617500",
          "073826.127500",
          "073828.637500",
          "073831.147500",
          "073833.657500",
          "073836.167500",
          "073838.677500",
          "073841.187500",
          "073843.697500",
          "073846.207500",
          "073848.717500",
          "073851.227500",
          "073853.737500",
          "073856.247500",
          "073858.757500",
          "073901.267500",
          "073903.777500",
          "073906.287500",
          "073908.797500",
          "073911.307500",
          "073913.817500",
          "073916.327500",
          "073918.837500",
          "073921.347500",
          "073923.857500",
          "073926.367500",
          "073928.877500",
          "073931.387500",
          "073933.897500",
          "073936.407500",
          "073938.917500",
          "073941.427500",
          "073943.937500",
          "073946.447500",
          "073948.957500",
          "073951.467500",
          "073953.977500",
          "073956.487500",
          "073958.997500",
          "074001.510000",
          "074004.020000",
          "074006.530000",
          "074009.040000",
          "074011.550000",
          "074014.060000",
          "074016.570000",
          "074019.080000",
          "074021.590000",
          "074024.100000",
          "074026.610000",
          "074029.120000",
          "074031.630000",
          "074034.140000",
          "074036.650000",
          "074039.160000",
          "074041.670000",
          "074044.180000",
          "074046.690000",
          "074049.200000",
          "074051.710000",
          "074054.220000",
          "074056.730000",
          "074059.240000",
          "074101.750000",
          "074104.260000",
          "074106.770000",
          "074109.280000",
          "074111.790000",
          "074114.300000",
          "074116.810000",
          "074119.320000",
          "074121.830000",
          "074124.340000",
          "074126.850000",
          "074129.360000",
          "074131.870000",
          "074134.380000",
          "074136.890000",
          "074139.400000",
          "074141.910000",
          "074144.420000",
          "074146.930000",
          "074149.440000",
          "074151.950000",
          "074154.460000",
          "074156.970000",
          "074159.480000",
          "074201.990000",
          "074204.500000",
          "074207.010000",
          "074209.520000",
          "074212.030000",
          "074214.540000",
          "074217.050000",
          "074219.560000",
          "074222.070000",
          "074224.580000",
          "074227.090000",
          "074229.600000",
          "074232.110000",
          "074234.620000",
          "074237.132500",
          "074239.642500",
          "074242.152500",
          "074244.662500",
          "074247.172500",
          "074249.682500",
          "074252.192500",
          "074254.702500",
          "074257.212500",
          "074259.722500",
          "074302.232500",
          "074304.742500",
          "074307.252500",
          "074309.762500",
          "074312.272500",
          "074314.782500",
          "074317.292500",
          "074319.802500",
          "074322.312500",
          "074324.822500",
          "074327.332500",
          "074329.842500"
        ],
        "ContentTime": [
          "073643.093000",
          "073645.593000",
          "073648.093000",
          "073650.593000",
          "073653.093000",
          "073655.593000",
          "073658.093000",
          "073700.593000",
          "073703.093000",
          "073705.593000",
          "073708.093000",
          "073710.593000",
          "073713.093000",
          "073715.593000",
          "073718.093000",
          "073720.593000",
          "073723.093000",
          "073725.593000",
          "073728.093000",
          "073730.593000",
          "073733.093000",
          "073735.593000",
          "073738.093000",
          "073740.593000",
          "073743.093000",
          "073745.593000",
          "073748.093000",
          "073750.593000",
          "073753.093000",
          "073755.593000",
          "073758.093000",
          "073800.593000",
          "073803.093000",
          "073805.593000",
          "073808.093000",
          "073810.593000",
          "073813.093000",
          "073815.593000",
          "073818.093000",
          "073820.593000",
          "073823.093000",
          "073825.593000",
          "073828.093000",
          "073830.593000",
          "073833.093000",
          "073835.593000",
          "073838.093000",
          "073840.593000",
          "073843.093000",
          "073845.593000",
          "073848.093000",
          "073850.593000",
          "073853.093000",
          "073855.593000",
          "073858.093000",
          "073900.593000",
          "073903.093000",
          "073905.593000",
          "073908.093000",
          "073910.593000",
          "073913.093000",
          "073915.593000",
          "073918.093000",
          "073920.593000",
          "073923.093000",
          "073925.593000",
          "073928.093000",
          "073930.593000",
          "073933.093000",
          "073935.593000",
          "073938.093000",
          "073940.593000",
          "073943.093000",
          "073945.593000",
          "073948.093000",
          "073950.593000",
          "073953.093000",
          "073955.593000",
          "073958.093000",
          "074000.593000",
          "074003.093000",
          "074005.593000",
          "074008.093000",
          "074010.593000",
          "074013.093000",
          "074015.593000",
          "074018.093000",
          "074020.593000",
          "074023.093000",
          "074025.593000",
          "074028.093000",
          "074030.593000",
          "074033.093000",
          "074035.593000",
          "074038.093000",
          "074040.593000",
          "074043.093000",
          "074045.593000",
          "074048.093000",
          "074050.593000",
          "074053.093000",
          "074055.593000",
          "074058.093000",
          "074100.593000",
          "074103.093000",
          "074105.593000",
          "074108.093000",
          "074110.593000",
          "074113.093000",
          "074115.593000",
          "074118.093000",
          "074120.593000",
          "074123.093000",
          "074125.593000",
          "074128.093000",
          "074130.593000",
          "074133.093000",
          "074135.593000",
          "074138.093000",
          "074140.593000",
          "074143.093000",
          "074145.593000",
          "074148.093000",
          "074150.593000",
          "074153.093000",
          "074155.593000",
          "074158.093000",
          "074200.593000",
          "074203.093000",
          "074205.593000",
          "074208.093000",
          "074210.593000",
          "074213.093000",
          "074215.593000",
          "074218.093000",
          "074220.593000",
          "074223.093000",
          "074225.593000",
          "074228.093000",
          "074230.593000",
          "074233.093000",
          "074235.593000",
          "074238.093000",
          "074240.593000",
          "074243.093000",
          "074245.593000",
          "074248.093000",
          "074250.593000",
          "074253.093000",
          "074255.593000",
          "074258.093000",
          "074300.593000",
          "074303.093000",
          "074305.593000",
          "074308.093000",
          "074310.593000",
          "074313.093000",
          "074315.593000",
          "074318.093000",
          "074320.593000",
          "074323.093000",
          "074325.593000",
          "074328.093000",
          "074330.390000"
        ],
        "InstanceCreationTime": [
          "073643.093000",
          "073645.593000",
          "073648.093000",
          "073650.593000",
          "073653.093000",
          "073655.593000",
          "073658.093000",
          "073700.593000",
          "073703.093000",
          "073705.593000",
          "073708.093000",
          "073710.593000",
          "073713.093000",
          "073715.593000",
          "073718.093000",
          "073720.593000",
          "073723.093000",
          "073725.593000",
          "073728.093000",
          "073730.593000",
          "073733.093000",
          "073735.593000",
          "073738.093000",
          "073740.593000",
          "073743.093000",
          "073745.593000",
          "073748.093000",
          "073750.593000",
          "073753.093000",
          "073755.593000",
          "073758.093000",
          "073800.593000",
          "073803.093000",
          "073805.593000",
          "073808.093000",
          "073810.593000",
          "073813.093000",
          "073815.593000",
          "073818.093000",
          "073820.593000",
          "073823.093000",
          "073825.593000",
          "073828.093000",
          "073830.593000",
          "073833.093000",
          "073835.593000",
          "073838.093000",
          "073840.593000",
          "073843.093000",
          "073845.593000",
          "073848.093000",
          "073850.593000",
          "073853.093000",
          "073855.593000",
          "073858.093000",
          "073900.593000",
          "073903.093000",
          "073905.593000",
          "073908.093000",
          "073910.593000",
          "073913.093000",
          "073915.593000",
          "073918.093000",
          "073920.593000",
          "073923.093000",
          "073925.593000",
          "073928.093000",
          "073930.593000",
          "073933.093000",
          "073935.593000",
          "073938.093000",
          "073940.593000",
          "073943.093000",
          "073945.593000",
          "073948.093000",
          "073950.593000",
          "073953.093000",
          "073955.593000",
          "073958.093000",
          "074000.593000",
          "074003.093000",
          "074005.593000",
          "074008.093000",
          "074010.593000",
          "074013.093000",
          "074015.593000",
          "074018.093000",
          "074020.593000",
          "074023.093000",
          "074025.593000",
          "074028.093000",
          "074030.593000",
          "074033.093000",
          "074035.593000",
          "074038.093000",
          "074040.593000",
          "074043.093000",
          "074045.593000",
          "074048.093000",
          "074050.593000",
          "074053.093000",
          "074055.593000",
          "074058.093000",
          "074100.593000",
          "074103.093000",
          "074105.593000",
          "074108.093000",
          "074110.593000",
          "074113.093000",
          "074115.593000",
          "074118.093000",
          "074120.593000",
          "074123.093000",
          "074125.593000",
          "074128.093000",
          "074130.593000",
          "074133.093000",
          "074135.593000",
          "074138.093000",
          "074140.593000",
          "074143.093000",
          "074145.593000",
          "074148.093000",
          "074150.593000",
          "074153.093000",
          "074155.593000",
          "074158.093000",
          "074200.593000",
          "074203.093000",
          "074205.593000",
          "074208.093000",
          "074210.593000",
          "074213.093000",
          "074215.593000",
          "074218.093000",
          "074220.593000",
          "074223.093000",
          "074225.593000",
          "074228.093000",
          "074230.593000",
          "074233.093000",
          "074235.593000",
          "074238.093000",
          "074240.593000",
          "074243.093000",
          "074245.593000",
          "074248.093000",
          "074250.593000",
          "074253.093000",
          "074255.593000",
          "074258.093000",
          "074300.593000",
          "074303.093000",
          "074305.593000",
          "074308.093000",
          "074310.593000",
          "074313.093000",
          "074315.593000",
          "074318.093000",
          "074320.593000",
          "074323.093000",
          "074325.593000",
          "074328.093000",
          "074330.390000"
        ],
        "InstanceNumber": [
          1,
          2,
          3,
          4,
          5,
          6,
          7,
          8,
          9,
          10,
          11,
          12,
          13,
          14,
          15,
          16,
          17,
          18,
          19,
          20,
          21,
          22,
          23,
          24,
          25,
          26,
          27,
          28,
          29,
          30,
          31,
          32,
          33,
          34,
          35,
          36,
          37,
          38,
          39,
          40,
          41,
          42,
          43,
          44,
          45,
          46,
          47,
          48,
          49,
          50,
          51,
          52,
          53,
          54,
          55,
          56,
          57,
          58,
          59,
          60,
          61,
          62,
          63,
          64,
          65,
          66,
          67,
          68,
          69,
          70,
          71,
          72,
          73,
          74,
          75,
          76,
          77,
          78,
          79,
          80,
          81,
          82,
          83,
          84,
          85,
          86,
          87,
          88,
          89,
          90,
          91,
          92,
          93,
          94,
          95,
          96,
          97,
          98,
          99,
          100,
          101,
          102,
          103,
          104,
          105,
          106,
          107,
          108,
          109,
          110,
          111,
          112,
          113,
          114,
          115,
          116,
          117,
          118,
          119,
          120,
          121,
          122,
          123,
          124,
          125,
          126,
          127,
          128,
          129,
          130,
          131,
          132,
          133,
          134,
          135,
          136,
          137,
          138,
          139,
          140,
          141,
          142,
          143,
          144,
          145,
          146,
          147,
          148,
          149,
          150,
          151,
          152,
          153,
          154,
          155,
          156,
          157,
          158,
          159,
          160,
          161,
          162,
          163,
          164
        ],
        "LargestImagePixelValue": [
          1395,
          1350,
          1379,
          1349,
          1354,
          1394,
          1378,
          1387,
          1367,
          1333,
          1332,
          1339,
          1387,
          1386,
          1414,
          1374,
          1397,
          1347,
          1350,
          1416,
          1324,
          1435,
          1424,
          1385,
          1379,
          1328,
          1374,
          1347,
          1314,
          1403,
          1398,
          1383,
          1393,
          1450,
          1423,
          1362,
          1376,
          1516,
          1440,
          1470,
          1344,
          1411,
          1392,
          1405,
          1410,
          1369,
          1496,
          1419,
          1431,
          1416,
          1411,
          1433,
          1338,
          1407,
          1406,
          1452,
          1409,
          1395,
          1387,
          1433,
          1399,
          1461,
          1385,
          1478,
          1453,
          1441,
          1377,
          1434,
          1389,
          1479,
          1388,
          1428,
          1402,
          1439,
          1410,
          1437,
          1467,
          1490,
          1317,
          1470,
          1423,
          1439,
          1447,
          1414,
          1429,
          1458,
          1437,
          1453,
          1419,
          1333,
          1485,
          1393,
          1407,
          1386,
          1429,
          1334,
          1452,
          1389,
          1461,
          1342,
          1413,
          1478,
          1437,
          1478,
          1422,
          1403,
          1423,
          1370,
          1397,
          1378,
          1481,
          1421,
          1406,
          1465,
          1419,
          1391,
          1421,
          1400,
          1392,
          1407,
          1360,
          1452,
          1385,
          1390,
          1398,
          1391,
          1382,
          1361,
          1486,
          1447,
          1417,
          1475,
          1417,
          1457,
          1460,
          1460,
          1393,
          1385,
          1414,
          1337,
          1467,
          1360,
          1412,
          1359,
          1472,
          1447,
          1525,
          1414,
          1472,
          1418,
          1542,
          1525,
          1450,
          1432,
          1496,
          1489,
          1546,
          1449,
          1602,
          1499,
          1555,
          1471,
          1417,
          1416
        ],
        "WindowCenter": [
          612.0,
          611.0,
          610.0,
          610.0,
          611.0,
          611.0,
          611.0,
          611.0,
          611.0,
          610.0,
          609.0,
          610.0,
          611.0,
          611.0,
          610.0,
          609.0,
          610.0,
          610.0,
          610.0,
          610.0,
          610.0,
          611.0,
          611.0,
          610.0,
          610.0,
          610.0,
          611.0,
          611.0,
          610.0,
          611.0,
          611.0,
          608.0,
          611.0,
          611.0,
          610.0,
          610.0,
          610.0,
          611.0,
          610.0,
          610.0,
          610.0,
          611.0,
          612.0,
          611.0,
          612.0,
          610.0,
          611.0,
          611.0,
          611.0,
          610.0,
          610.0,
          612.0,
          610.0,
          611.0,
          611.0,
          610.0,
          609.0,
          610.0,
          610.0,
          611.0,
          612.0,
          610.0,
          611.0,
          611.0,
          611.0,
          610.0,
          611.0,
          611.0,
          611.0,
          611.0,
          611.0,
          610.0,
          610.0,
          609.0,
          612.0,
          612.0,
          611.0,
          610.0,
          610.0,
          611.0,
          611.0,
          611.0,
          612.0,
          611.0,
          611.0,
          612.0,
          612.0,
          610.0,
          609.0,
          611.0,
          611.0,
          609.0,
          609.0,
          609.0,
          609.0,
          609.0,
          610.0,
          610.0,
          610.0,
          610.0,
          610.0,
          611.0,
          612.0,
          611.0,
          610.0,
          609.0,
          611.0,
          609.0,
          611.0,
          611.0,
          612.0,
          611.0,
          611.0,
          611.0,
          610.0,
          610.0,
          611.0,
          611.0,
          610.0,
          610.0,
          610.0,
          611.0,
          611.0,
          612.0,
          611.0,
          611.0,
          611.0,
          611.0,
          610.0,
          610.0,
          611.0,
          610.0,
          609.0,
          609.0,
          609.0,
          611.0,
          609.0,
          610.0,
          609.0,
          610.0,
          611.0,
          611.0,
          610.0,
          610.0,
          611.0,
          610.0,
          610.0,
          611.0,
          610.0,
          610.0,
          611.0,
