{
  "aor": 0.008915914634146342,
  "aqi": 0.014294300975609757,
  "bids_meta": {
    "AcquisitionMatrixPE": 64,
    "AcquisitionNumber": 1,
    "AcquisitionTime": "08:36:51.747500",
    "BandwidthPerPixelPhaseEncode": 26.483,
    "BaseResolution": 64,
    "BodyPartExamined": "HEAD",
    "CogAtlasID": "TODO",
    "ConversionSoftware": "dcm2niix",
    "ConversionSoftwareVersion": "v1.0.20171017 GCC6.3.0",
    "DerivedVendorReportedEchoSpacing": 0.000590001,
    "DeviceSerialNumber": "35177",
    "DwellTime": 4.1e-06,
    "EchoTime": 0.027,
    "EffectiveEchoSpacing": 0.000590001,
    "FlipAngle": 90,
    "ImageOrientationPatientDICOM": [
      0.998266,
      -0.0582745,
      0.00832889,
      0.0545896,
      0.969368,
      0.239469
    ],
    "ImageType": [
      "ORIGINAL",
      "PRIMARY",
      "M",
      "ND",
      "NORM",
      "MOSAIC"
    ],
    "InPlanePhaseEncodingDirectionDICOM": "COL",
    "InstitutionAddress": "Scott_Ave._4525_St._Louis_MO_US_63110",
    "InstitutionName": "Washington_University",
    "InstitutionalDepartmentName": "Department",
    "MRAcquisitionType": "2D",
    "MagneticFieldStrength": 3,
    "Manufacturer": "Siemens",
    "ManufacturersModelName": "TrioTim",
    "Modality": "MR",
    "PartialFourier": 1,
    "PatientPosition": "HFS",
    "PercentPhaseFOV": 100,
    "PhaseEncodingDirection": "j-",
    "PhaseEncodingSteps": 64,
    "PhaseResolution": 1,
    "PixelBandwidth": 1905,
    "ProcedureStepDescription": "head_GREENE",
    "ProtocolName": "ep2d_bold_ad_rest",
    "PulseSequenceDetails": "%SiemensSeq%_ep2d_bold",
    "ReceiveCoilName": "HeadMatrix",
    "ReconMatrixPE": 64,
    "RepetitionTime": 2.5,
    "SAR": 0.146205,
    "ScanOptions": "FS",
    "ScanningSequence": "EP",
    "SequenceName": "_epfid2d1_64",
    "SequenceVariant": "SK",
    "SeriesDescription": "ep2d_bold_ad_rest",
    "SeriesNumber": 11,
    "ShimSetting": [
      -205,
      -19647,
      8001,
      289,
      69,
      -217,
      540,
      94
    ],
    "SliceThickness": 4,
    "SliceTiming": [
      1.255,
      0,
      1.335,
      0.08,
      1.4125,
      0.1575,
      1.49,
      0.235,
      1.57,
      0.315,
      1.6475,
      0.3925,
      1.7275,
      0.4725,
      1.805,
      0.55,
      1.8825,
      0.6275,
      1.9625,
      0.7075,
      2.04,
      0.785,
      2.1175,
      0.8625,
      2.1975,
      0.9425,
      2.275,
      1.02,
      2.3525,
      1.1,
      2.4325,
      1.1775
    ],
    "SoftwareVersions": "syngo_MR_B17",
    "SpacingBetweenSlices": 4,
    "StationName": "MRC35177",
    "TaskName": "restfixationadaptive",
    "TotalReadoutTime": 0.0371701,
    "TxRefAmp": 345.131,
    "dataset": "ds000256",
    "dcmmeta_affine": [
      [
        -3.993063449859619,
        0.21835851669311523,
        0.0881146714091301,
        126.60234832763672
      ],
      [
        0.2330980896949768,
        3.8774728775024414,
        0.9543942809104919,
        -147.8131866455078
      ],
      [
        0.03331556171178818,
        -0.9578748345375061,
        3.8834705352783203,
        12.151058197021484
      ],
      [
        0.0,
        0.0,
        0.0,
        1.0
      ]
    ],
    "dcmmeta_reorient_transform": [
      [
        0.0,
        -1.0,
        0.0,
        63.0
      ],
      [
        1.0,
        0.0,
        0.0,
        0.0
      ],
      [
        0.0,
        0.0,
        1.0,
        0.0
      ],
      [
        0.0,
        0.0,
        0.0,
        1.0
      ]
    ],
    "dcmmeta_shape": [
      64,
      64,
      32,
      164
    ],
    "dcmmeta_slice_dim": 2,
    "dcmmeta_version": 0.6,
    "global": {
      "const": {
        "AccessionNumber": ".",
        "AcquisitionMatrix": [
          64,
          0,
          0,
          64
        ],
        "AngioFlag": "N",
        "BitsAllocated": 16,
        "BitsStored": 12,
        "BodyPartExamined": "HEAD",
        "Columns": 384,
        "DeidentificationMethodCodeSequence": [
          {
            "CodeMeaning": "XNAT Edit Script",
            "CodeValue": "625500",
            "CodingSchemeDesignator": "XNAT",
            "CodingSchemeVersion": "0.1"
          }
        ],
        "EchoNumbers": 1,
        "EchoTime": 27.0,
        "EchoTrainLength": 1,
        "FlipAngle": 90.0,
        "HighBit": 11,
        "ImageOrientationPatient": [
          0.99826585116008,
          -0.0582745227024,
          0.0083288901684,
          0.05458962735144,
          0.96936820282353,
          0.23946870346732
        ],
        "ImagePositionPatient": [
          -814.18644421483,
          -679.5675510846,
          -206.78551495544
        ],
        "ImageType": [
          "ORIGINAL",
          "PRIMARY",
          "M",
          "ND",
          "NORM",
          "MOSAIC"
        ],
        "ImagedNucleus": "1H",
        "ImagingFrequency": 123.255937,
        "InPlanePhaseEncodingDirection": "COL",
        "MRAcquisitionType": "2D",
        "MagneticFieldStrength": 3.0,
        "Manufacturer": "SIEMENS",
        "ManufacturerModelName": "TrioTim",
        "Modality": "MR",
        "NumberOfAverages": 1.0,
        "NumberOfPhaseEncodingSteps": 64,
        "PercentPhaseFieldOfView": 100.0,
        "PercentSampling": 100.0,
        "PerformedProcedureStepStartTime": "073131.609000",
        "PhotometricInterpretation": "MONOCHROME2",
        "PixelBandwidth": 1905.0,
        "PixelRepresentation": 0,
        "PixelSpacing": [
          4.0,
          4.0
        ],
        "PositionReferenceIndicator": "",
        "ProtocolName": "ep2d_bold_ad_rest",
        "RepetitionTime": 2500.0,
        "Rows": 384,
        "SAR": 0.14620518365407,
        "SamplesPerPixel": 1,
        "ScanOptions": "FS",
        "ScanningSequence": "EP",
        "SequenceName": "*epfid2d1_64",
        "SequenceVariant": "SK",
        "SeriesDescription": "ep2d_bold_ad_rest",
        "SeriesNumber": 11,
        "SeriesTime": "083654.062000",
        "SliceLocation": -20.682082483044,
        "SliceThickness": 4.0,
        "SmallestImagePixelValue": 0,
        "SoftwareVersions": "syngo MR B17",
        "SpacingBetweenSlices": 3.9999969294343,
        "SpecificCharacterSet": "ISO_IR 100",
        "StudyID": "1",
        "StudyTime": "073131.562000",
        "TransmitCoilName": "Body",
        "VariableFlipAngleFlag": "N",
        "WindowCenterWidthExplanation": "Algo1",
        "dBdt": 0.0
      },
      "slices": {}
    },
    "modality": "bold",
    "subject_id": "CTS230",
    "task_id": "restfixationadaptive",
    "time": {
      "samples": {
        "AcquisitionNumber": [
          1,
          2,
          3,
          4,
          5,
          6,
          7,
          8,
          9,
          10,
          11,
          12,
          13,
          14,
          15,
          16,
          17,
          18,
          19,
          20,
          21,
          22,
          23,
          24,
          25,
          26,
          27,
          28,
          29,
          30,
          31,
          32,
          33,
          34,
          35,
          36,
          37,
          38,
          39,
          40,
          41,
          42,
          43,
          44,
          45,
          46,
          47,
          48,
          49,
          50,
          51,
          52,
          53,
          54,
          55,
          56,
          57,
          58,
          59,
          60,
          61,
          62,
          63,
          64,
          65,
          66,
          67,
          68,
          69,
          70,
          71,
          72,
          73,
          74,
          75,
          76,
          77,
          78,
          79,
          80,
          81,
          82,
          83,
          84,
          85,
          86,
          87,
          88,
          89,
          90,
          91,
          92,
          93,
          94,
          95,
          96,
          97,
          98,
          99,
          100,
          101,
          102,
          103,
          104,
          105,
          106,
          107,
          108,
          109,
          110,
          111,
          112,
          113,
          114,
          115,
          116,
          117,
          118,
          119,
          120,
          121,
          122,
          123,
          124,
          125,
          126,
          127,
          128,
          129,
          130,
          131,
          132,
          133,
          134,
          135,
          136,
          137,
          138,
          139,
          140,
          141,
          142,
          143,
          144,
          145,
          146,
          147,
          148,
          149,
          150,
          151,
          152,
          153,
          154,
          155,
          156,
          157,
          158,
          159,
          160,
          161,
          162,
          163,
          164
        ],
        "AcquisitionTime": [
          "083651.747500",
          "083654.257500",
          "083656.767500",
          "083659.277500",
          "083701.787500",
          "083704.297500",
          "083706.807500",
          "083709.317500",
          "083711.827500",
          "083714.337500",
          "083716.847500",
          "083719.357500",
          "083721.867500",
          "083724.380000",
          "083726.890000",
          "083729.400000",
          "083731.910000",
          "083734.420000",
          "083736.930000",
          "083739.440000",
          "083741.950000",
          "083744.460000",
          "083746.970000",
          "083749.480000",
          "083751.990000",
          "083754.500000",
          "083757.010000",
          "083759.520000",
          "083802.030000",
          "083804.540000",
          "083807.050000",
          "083809.560000",
          "083812.070000",
          "083814.580000",
          "083817.090000",
          "083819.600000",
          "083822.110000",
          "083824.620000",
          "083827.130000",
          "083829.640000",
          "083832.150000",
          "083834.660000",
          "083837.170000",
          "083839.680000",
          "083842.190000",
          "083844.700000",
          "083847.210000",
          "083849.720000",
          "083852.230000",
          "083854.740000",
          "083857.250000",
          "083859.760000",
          "083902.270000",
          "083904.780000",
          "083907.290000",
          "083909.800000",
          "083912.310000",
          "083914.820000",
          "083917.330000",
          "083919.840000",
          "083922.350000",
          "083924.860000",
          "083927.370000",
          "083929.880000",
          "083932.390000",
          "083934.900000",
          "083937.410000",
          "083939.920000",
          "083942.430000",
          "083944.940000",
          "083947.450000",
          "083949.960000",
          "083952.470000",
          "083954.980000",
          "083957.490000",
          "084000.002500",
          "084002.512500",
          "084005.022500",
          "084007.532500",
          "084010.042500",
          "084012.552500",
          "084015.062500",
          "084017.572500",
          "084020.082500",
          "084022.592500",
          "084025.102500",
          "084027.612500",
          "084030.122500",
          "084032.632500",
          "084035.142500",
          "084037.652500",
          "084040.162500",
          "084042.672500",
          "084045.182500",
          "084047.692500",
          "084050.202500",
          "084052.712500",
          "084055.222500",
          "084057.732500",
          "084100.242500",
          "084102.752500",
          "084105.262500",
          "084107.772500",
          "084110.282500",
          "084112.792500",
          "084115.302500",
          "084117.812500",
          "084120.322500",
          "084122.832500",
          "084125.342500",
          "084127.852500",
          "084130.362500",
          "084132.872500",
          "084135.382500",
          "084137.892500",
          "084140.402500",
          "084142.912500",
          "084145.422500",
          "084147.932500",
          "084150.442500",
          "084152.952500",
          "084155.462500",
          "084157.972500",
          "084200.482500",
          "084202.992500",
          "084205.502500",
          "084208.012500",
          "084210.522500",
          "084213.032500",
          "084215.542500",
          "084218.052500",
          "084220.562500",
          "084223.072500",
          "084225.582500",
          "084228.092500",
          "084230.602500",
          "084233.112500",
          "084235.625000",
          "084238.135000",
          "084240.645000",
          "084243.155000",
          "084245.665000",
          "084248.175000",
          "084250.685000",
          "084253.195000",
          "084255.705000",
          "084258.215000",
          "084300.725000",
          "084303.235000",
          "084305.745000",
          "084308.255000",
          "084310.765000",
          "084313.275000",
          "084315.785000",
          "084318.295000",
          "084320.805000",
          "084323.315000",
          "084325.825000",
          "084328.335000",
          "084330.845000",
          "084333.355000",
          "084335.865000",
          "084338.375000",
          "084340.885000"
        ],
        "ContentTime": [
          "083654.078000",
          "083656.562000",
          "083659.062000",
          "083701.562000",
          "083704.062000",
          "083706.562000",
          "083709.062000",
          "083711.562000",
          "083714.062000",
          "083716.562000",
          "083719.062000",
          "083721.562000",
          "083724.062000",
          "083726.562000",
          "083729.062000",
          "083731.562000",
          "083734.062000",
          "083736.562000",
          "083739.062000",
          "083741.562000",
          "083744.062000",
          "083746.562000",
          "083749.062000",
          "083751.562000",
          "083754.062000",
          "083756.562000",
          "083759.062000",
          "083801.562000",
          "083804.062000",
          "083806.562000",
          "083809.062000",
          "083811.562000",
          "083814.062000",
          "083816.562000",
          "083819.062000",
          "083821.562000",
          "083824.062000",
          "083826.562000",
          "083829.062000",
          "083831.562000",
          "083834.062000",
          "083836.562000",
          "083839.062000",
          "083841.562000",
          "083844.062000",
          "083846.562000",
          "083849.062000",
          "083851.562000",
          "083854.062000",
          "083856.562000",
          "083859.062000",
          "083901.562000",
          "083904.062000",
          "083906.562000",
          "083909.062000",
          "083911.562000",
          "083914.062000",
          "083916.562000",
          "083919.062000",
          "083921.562000",
          "083924.062000",
          "083926.562000",
          "083929.062000",
          "083931.562000",
          "083934.062000",
          "083936.562000",
          "083939.062000",
          "083941.562000",
          "083944.062000",
          "083946.562000",
          "083949.062000",
          "083951.562000",
          "083954.062000",
          "083956.562000",
          "083959.062000",
          "084001.562000",
          "084004.062000",
          "084006.562000",
          "084009.062000",
          "084011.562000",
          "084014.062000",
          "084016.562000",
          "084019.062000",
          "084021.562000",
          "084024.062000",
          "084026.562000",
          "084029.062000",
          "084031.562000",
          "084034.062000",
          "084036.562000",
          "084039.062000",
          "084041.562000",
          "084044.062000",
          "084046.562000",
          "084049.062000",
          "084051.562000",
          "084054.062000",
          "084056.562000",
          "084059.062000",
          "084101.562000",
          "084104.062000",
          "084106.562000",
          "084109.062000",
          "084111.562000",
          "084114.062000",
          "084116.562000",
          "084119.062000",
          "084121.562000",
          "084124.062000",
          "084126.562000",
          "084129.062000",
          "084131.562000",
          "084134.062000",
          "084136.562000",
          "084139.062000",
          "084141.562000",
          "084144.062000",
          "084146.562000",
          "084149.062000",
          "084151.562000",
          "084154.062000",
          "084156.562000",
          "084159.062000",
          "084201.562000",
          "084204.062000",
          "084206.562000",
          "084209.062000",
          "084211.562000",
          "084214.062000",
          "084216.562000",
          "084219.062000",
          "084221.562000",
          "084224.062000",
          "084226.562000",
          "084229.062000",
          "084231.562000",
          "084234.062000",
          "084236.562000",
          "084239.062000",
          "084241.562000",
          "084244.062000",
          "084246.562000",
          "084249.062000",
          "084251.562000",
          "084254.062000",
          "084256.562000",
          "084259.062000",
          "084301.562000",
          "084304.062000",
          "084306.562000",
          "084309.062000",
          "084311.562000",
          "084314.062000",
          "084316.562000",
          "084319.062000",
          "084321.562000",
          "084324.062000",
          "084326.562000",
          "084329.062000",
          "084331.562000",
          "084334.062000",
          "084336.562000",
          "084339.062000",
          "084341.453000"
        ],
        "InstanceCreationTime": [
          "083654.078000",
          "083656.562000",
          "083659.062000",
          "083701.562000",
          "083704.062000",
          "083706.562000",
          "083709.062000",
          "083711.562000",
          "083714.062000",
          "083716.562000",
          "083719.062000",
          "083721.562000",
          "083724.062000",
          "083726.562000",
          "083729.062000",
          "083731.562000",
          "083734.062000",
          "083736.562000",
          "083739.062000",
          "083741.562000",
          "083744.062000",
          "083746.562000",
          "083749.062000",
          "083751.562000",
          "083754.062000",
          "083756.562000",
          "083759.062000",
          "083801.562000",
          "083804.062000",
          "083806.562000",
          "083809.062000",
          "083811.562000",
          "083814.062000",
          "083816.562000",
          "083819.062000",
          "083821.562000",
          "083824.062000",
          "083826.562000",
          "083829.062000",
          "083831.562000",
          "083834.062000",
          "083836.562000",
          "083839.062000",
          "083841.562000",
          "083844.062000",
          "083846.562000",
          "083849.062000",
          "083851.562000",
          "083854.062000",
          "083856.562000",
          "083859.062000",
          "083901.562000",
          "083904.062000",
          "083906.562000",
          "083909.062000",
          "083911.562000",
          "083914.062000",
          "083916.562000",
          "083919.062000",
          "083921.562000",
          "083924.062000",
          "083926.562000",
          "083929.062000",
          "083931.562000",
          "083934.062000",
          "083936.562000",
          "083939.062000",
          "083941.562000",
          "083944.062000",
          "083946.562000",
          "083949.062000",
          "083951.562000",
          "083954.062000",
          "083956.562000",
          "083959.062000",
          "084001.562000",
          "084004.062000",
          "084006.562000",
          "084009.062000",
          "084011.562000",
          "084014.062000",
          "084016.562000",
          "084019.062000",
          "084021.562000",
          "084024.062000",
          "084026.562000",
          "084029.062000",
          "084031.562000",
          "084034.062000",
          "084036.562000",
          "084039.062000",
          "084041.562000",
          "084044.062000",
          "084046.562000",
          "084049.062000",
          "084051.562000",
          "084054.062000",
          "084056.562000",
          "084059.062000",
          "084101.562000",
          "084104.062000",
          "084106.562000",
          "084109.062000",
          "084111.562000",
          "084114.062000",
          "084116.562000",
          "084119.062000",
          "084121.562000",
          "084124.062000",
          "084126.562000",
          "084129.062000",
          "084131.562000",
          "084134.062000",
          "084136.562000",
          "084139.062000",
          "084141.562000",
          "084144.062000",
          "084146.562000",
          "084149.062000",
          "084151.562000",
          "084154.062000",
          "084156.562000",
          "084159.062000",
          "084201.562000",
          "084204.062000",
          "084206.562000",
          "084209.062000",
          "084211.562000",
          "084214.062000",
          "084216.562000",
          "084219.062000",
          "084221.562000",
          "084224.062000",
          "084226.562000",
          "084229.062000",
          "084231.562000",
          "084234.062000",
          "084236.562000",
          "084239.062000",
          "084241.562000",
          "084244.062000",
          "084246.562000",
          "084249.062000",
          "084251.562000",
          "084254.062000",
          "084256.562000",
          "084259.062000",
          "084301.562000",
          "084304.062000",
          "084306.562000",
          "084309.062000",
          "084311.562000",
          "084314.062000",
          "084316.562000",
          "084319.062000",
          "084321.562000",
          "084324.062000",
          "084326.562000",
          "084329.062000",
          "084331.562000",
          "084334.062000",
          "084336.562000",
          "084339.062000",
          "084341.453000"
        ],
        "InstanceNumber": [
          1,
          2,
          3,
          4,
          5,
          6,
          7,
          8,
          9,
          10,
          11,
          12,
          13,
          14,
          15,
          16,
          17,
          18,
          19,
          20,
          21,
          22,
          23,
          24,
          25,
          26,
          27,
          28,
          29,
          30,
          31,
          32,
          33,
          34,
          35,
          36,
          37,
          38,
          39,
          40,
          41,
          42,
          43,
          44,
          45,
          46,
          47,
          48,
          49,
          50,
          51,
          52,
          53,
          54,
          55,
          56,
          57,
          58,
          59,
          60,
          61,
          62,
          63,
          64,
          65,
          66,
          67,
          68,
          69,
          70,
          71,
          72,
          73,
          74,
          75,
          76,
          77,
          78,
          79,
          80,
          81,
          82,
          83,
          84,
          85,
          86,
          87,
          88,
          89,
          90,
          91,
          92,
          93,
          94,
          95,
          96,
          97,
          98,
          99,
          100,
          101,
          102,
          103,
          104,
          105,
          106,
          107,
          108,
          109,
          110,
          111,
          112,
          113,
          114,
          115,
          116,
          117,
          118,
          119,
          120,
          121,
          122,
          123,
          124,
          125,
          126,
          127,
          128,
          129,
          130,
          131,
          132,
          133,
          134,
          135,
          136,
          137,
          138,
          139,
          140,
          141,
          142,
          143,
          144,
          145,
          146,
          147,
          148,
          149,
          150,
          151,
          152,
          153,
          154,
          155,
          156,
          157,
          158,
          159,
          160,
          161,
          162,
          163,
          164
        ],
        "LargestImagePixelValue": [
          1410,
          1409,
          1321,
          1467,
          1369,
          1396,
          1384,
          1403,
          1437,
          1401,
          1409,
          1446,
          1343,
          1402,
          1465,
          1386,
          1433,
          1436,
          1398,
          1348,
          1335,
          1459,
          1435,
          1362,
          1437,
          1393,
          1416,
          1446,
          1371,
          1420,
          1446,
          1468,
          1483,
          1330,
          1387,
          1408,
          1536,
          1539,
          1407,
          1492,
          1386,
          1361,
          1413,
          1357,
          1357,
          1303,
          1415,
          1379,
          1381,
          1470,
          1354,
          1377,
          1507,
          1446,
          1455,
          1381,
          1341,
          1430,
          1357,
          1365,
          1439,
          1486,
          1421,
          1419,
          1362,
          1353,
          1390,
          1414,
          1443,
          1461,
          1416,
          1447,
          1369,
          1364,
          1401,
          1482,
          1465,
          1421,
          1369,
          1291,
          1290,
          1481,
          1416,
          1434,
          1503,
          1358,
          1450,
          1437,
          1395,
          1489,
          1460,
          1408,
          1447,
          1429,
          1434,
          1382,
          1347,
          1393,
          1430,
          1400,
          1335,
          1399,
          1426,
          1375,
          1392,
          1370,
          1489,
          1413,
          1429,
          1524,
          1397,
          1370,
          1459,
          1435,
          1453,
          1335,
          1429,
          1439,
          1406,
          1391,
          1414,
          1359,
          1406,
          1423,
          1550,
          1353,
          1473,
          1537,
          1440,
          1457,
          1302,
          1332,
          1375,
          1322,
          1291,
          1409,
          1291,
          1359,
          1412,
          1432,
          1363,
          1377,
          1499,
          1479,
          1368,
          1340,
          1366,
          1367,
          1314,
          1311,
          1481,
          1363,
          1478,
          1374,
          1400,
          1391,
          1428,
          1408,
          1360,
          1338,
          1399,
          1344,
          1384,
          1461
        ],
        "WindowCenter": [
          619.0,
          616.0,
          612.0,
          617.0,
          612.0,
          616.0,
          615.0,
          613.0,
          612.0,
          616.0,
          617.0,
          616.0,
          617.0,
          614.0,
          613.0,
          617.0,
          617.0,
          618.0,
          617.0,
          613.0,
          614.0,
          614.0,
          613.0,
          613.0,
          617.0,
          613.0,
          617.0,
          613.0,
          618.0,
          612.0,
          613.0,
          613.0,
          613.0,
          611.0,
          613.0,
          614.0,
          617.0,
          618.0,
          617.0,
          616.0,
          616.0,
          612.0,
          613.0,
          616.0,
          617.0,
          612.0,
          613.0,
          617.0,
          617.0,
          619.0,
          618.0,
          615.0,
          618.0,
          613.0,
          617.0,
          617.0,
          617.0,
          617.0,
          618.0,
          613.0,
          615.0,
          618.0,
          614.0,
          614.0,
          618.0,
          617.0,
          616.0,
          618.0,
          617.0,
          618.0,
          618.0,
          617.0,
          617.0,
          617.0,
          618.0,
          618.0,
          614.0,
          615.0,
          613.0,
          618.0,
          616.0,
          613.0,
          613.0,
          612.0,
          618.0,
          618.0,
          618.0,
          614.0,
          613.0,
          613.0,
          619.0,
          614.0,
          616.0,
          611.0,
          618.0,
          617.0,
          616.0,
          617.0,
          617.0,
          614.0,
          617.0,
          617.0,
          613.0,
          616.0,
          617.0,
          614.0,
          614.0,
          612.0,
          613.0,
          613.0,
          612.0,
          617.0,
          618.0,
          617.0,
          613.0,
          612.0,
          618.0,
          617.0,
          615.0,
          618.0,
          613.0,
          614.0,
          618.0,
          616.0,
          618.0,
          609.0,
          616.0,
          610.0,
          613.0,
          614.0,
          616.0,
          616.0,
          617.0,
          618.0,
          618.0,
          618.0,
          614.0,
          613.0,
          613.0,
          613.0,
          617.0,
          616.0,
          618.0,
          612.0,
          617.0,
          618.0,
          614.0,
          614.0,
          619.0,
          613.0,
