{
  "aor": 0.002595,
  "aqi": 0.01278302756097561,
  "bids_meta": {
    "AcquisitionMatrixPE": 64,
    "AcquisitionNumber": 1,
    "AcquisitionTime": "08:27:59.142500",
    "BandwidthPerPixelPhaseEncode": 26.483,
    "BaseResolution": 64,
    "BodyPartExamined": "HEAD",
    "CogAtlasID": "TODO",
    "ConversionSoftware": "dcm2niix",
    "ConversionSoftwareVersion": "v1.0.20171017 GCC6.3.0",
    "DerivedVendorReportedEchoSpacing": 0.000590001,
    "DeviceSerialNumber": "35177",
    "DwellTime": 4.1e-06,
    "EchoTime": 0.027,
    "EffectiveEchoSpacing": 0.000590001,
    "FlipAngle": 90,
    "ImageOrientationPatientDICOM": [
      0.998266,
      -0.0582745,
      0.00832889,
      0.0545896,
      0.969368,
      0.239469
    ],
    "ImageType": [
      "ORIGINAL",
      "PRIMARY",
      "M",
      "ND",
      "NORM",
      "MOSAIC"
    ],
    "InPlanePhaseEncodingDirectionDICOM": "COL",
    "InstitutionAddress": "Scott_Ave._4525_St._Louis_MO_US_63110",
    "InstitutionName": "Washington_University",
    "InstitutionalDepartmentName": "Department",
    "MRAcquisitionType": "2D",
    "MagneticFieldStrength": 3,
    "Manufacturer": "Siemens",
    "ManufacturersModelName": "TrioTim",
    "Modality": "MR",
    "PartialFourier": 1,
    "PatientPosition": "HFS",
    "PercentPhaseFOV": 100,
    "PhaseEncodingDirection": "j-",
    "PhaseEncodingSteps": 64,
    "PhaseResolution": 1,
    "PixelBandwidth": 1905,
    "ProcedureStepDescription": "head_GREENE",
    "ProtocolName": "ep2d_bold_nonad_rest",
    "PulseSequenceDetails": "%SiemensSeq%_ep2d_bold",
    "ReceiveCoilName": "HeadMatrix",
    "ReconMatrixPE": 64,
    "RepetitionTime": 2.5,
    "SAR": 0.146205,
    "ScanOptions": "FS",
    "ScanningSequence": "EP",
    "SequenceName": "_epfid2d1_64",
    "SequenceVariant": "SK",
    "SeriesDescription": "ep2d_bold_nonad_rest",
    "SeriesNumber": 10,
    "ShimSetting": [
      -205,
      -19647,
      8001,
      289,
      69,
      -217,
      540,
      94
    ],
    "SliceThickness": 4,
    "SliceTiming": [
      1.255,
      0,
      1.3325,
      0.0775,
      1.41,
      0.155,
      1.49,
      0.235,
      1.5675,
      0.3125,
      1.645,
      0.3925,
      1.725,
      0.47,
      1.8025,
      0.5475,
      1.8825,
      0.6275,
      1.96,
      0.705,
      2.0375,
      0.7825,
      2.1175,
      0.8625,
      2.195,
      0.94,
      2.2725,
      1.02,
      2.3525,
      1.0975,
      2.43,
      1.175
    ],
    "SoftwareVersions": "syngo_MR_B17",
    "SpacingBetweenSlices": 4,
    "StationName": "MRC35177",
    "TaskName": "restfixationfixed",
    "TotalReadoutTime": 0.0371701,
    "TxRefAmp": 345.131,
    "dataset": "ds000256",
    "dcmmeta_affine": [
      [
        -3.993063449859619,
        0.21835851669311523,
        0.0881146714091301,
        126.60234832763672
      ],
      [
        0.2330980896949768,
        3.8774728775024414,
        0.9543942809104919,
        -147.8131866455078
      ],
      [
        0.03331556171178818,
        -0.9578748345375061,
        3.8834705352783203,
        12.151058197021484
      ],
      [
        0.0,
        0.0,
        0.0,
        1.0
      ]
    ],
    "dcmmeta_reorient_transform": [
      [
        0.0,
        -1.0,
        0.0,
        63.0
      ],
      [
        1.0,
        0.0,
        0.0,
        0.0
      ],
      [
        0.0,
        0.0,
        1.0,
        0.0
      ],
      [
        0.0,
        0.0,
        0.0,
        1.0
      ]
    ],
    "dcmmeta_shape": [
      64,
      64,
      32,
      164
    ],
    "dcmmeta_slice_dim": 2,
    "dcmmeta_version": 0.6,
    "global": {
      "const": {
        "AccessionNumber": ".",
        "AcquisitionMatrix": [
          64,
          0,
          0,
          64
        ],
        "AngioFlag": "N",
        "BitsAllocated": 16,
        "BitsStored": 12,
        "BodyPartExamined": "HEAD",
        "Columns": 384,
        "DeidentificationMethodCodeSequence": [
          {
            "CodeMeaning": "XNAT Edit Script",
            "CodeValue": "625500",
            "CodingSchemeDesignator": "XNAT",
            "CodingSchemeVersion": "0.1"
          }
        ],
        "EchoNumbers": 1,
        "EchoTime": 27.0,
        "EchoTrainLength": 1,
        "FlipAngle": 90.0,
        "HighBit": 11,
        "ImageOrientationPatient": [
          0.99826585116008,
          -0.0582745227024,
          0.0083288901684,
          0.05458962735144,
          0.96936820282353,
          0.23946870346732
        ],
        "ImagePositionPatient": [
          -814.18644421483,
          -679.5675510846,
          -206.78551495544
        ],
        "ImageType": [
          "ORIGINAL",
          "PRIMARY",
          "M",
          "ND",
          "NORM",
          "MOSAIC"
        ],
        "ImagedNucleus": "1H",
        "ImagingFrequency": 123.255935,
        "InPlanePhaseEncodingDirection": "COL",
        "MRAcquisitionType": "2D",
        "MagneticFieldStrength": 3.0,
        "Manufacturer": "SIEMENS",
        "ManufacturerModelName": "TrioTim",
        "Modality": "MR",
        "NumberOfAverages": 1.0,
        "NumberOfPhaseEncodingSteps": 64,
        "PercentPhaseFieldOfView": 100.0,
        "PercentSampling": 100.0,
        "PerformedProcedureStepStartTime": "073131.609000",
        "PhotometricInterpretation": "MONOCHROME2",
        "PixelBandwidth": 1905.0,
        "PixelRepresentation": 0,
        "PixelSpacing": [
          4.0,
          4.0
        ],
        "PositionReferenceIndicator": "",
        "ProtocolName": "ep2d_bold_nonad_rest",
        "RepetitionTime": 2500.0,
        "Rows": 384,
        "SAR": 0.14620518365407,
        "SamplesPerPixel": 1,
        "ScanOptions": "FS",
        "ScanningSequence": "EP",
        "SequenceName": "*epfid2d1_64",
        "SequenceVariant": "SK",
        "SeriesDescription": "ep2d_bold_nonad_rest",
        "SeriesNumber": 10,
        "SeriesTime": "082801.968000",
        "SliceLocation": -20.682082483044,
        "SliceThickness": 4.0,
        "SmallestImagePixelValue": 0,
        "SoftwareVersions": "syngo MR B17",
        "SpacingBetweenSlices": 3.9999969294343,
        "SpecificCharacterSet": "ISO_IR 100",
        "StudyID": "1",
        "StudyTime": "073131.562000",
        "TransmitCoilName": "Body",
        "VariableFlipAngleFlag": "N",
        "WindowCenterWidthExplanation": "Algo1",
        "dBdt": 0.0
      },
      "slices": {}
    },
    "modality": "bold",
    "subject_id": "CTS230",
    "task_id": "restfixationfixed",
    "time": {
      "samples": {
        "AcquisitionNumber": [
          1,
          2,
          3,
          4,
          5,
          6,
          7,
          8,
          9,
          10,
          11,
          12,
          13,
          14,
          15,
          16,
          17,
          18,
          19,
          20,
          21,
          22,
          23,
          24,
          25,
          26,
          27,
          28,
          29,
          30,
          31,
          32,
          33,
          34,
          35,
          36,
          37,
          38,
          39,
          40,
          41,
          42,
          43,
          44,
          45,
          46,
          47,
          48,
          49,
          50,
          51,
          52,
          53,
          54,
          55,
          56,
          57,
          58,
          59,
          60,
          61,
          62,
          63,
          64,
          65,
          66,
          67,
          68,
          69,
          70,
          71,
          72,
          73,
          74,
          75,
          76,
          77,
          78,
          79,
          80,
          81,
          82,
          83,
          84,
          85,
          86,
          87,
          88,
          89,
          90,
          91,
          92,
          93,
          94,
          95,
          96,
          97,
          98,
          99,
          100,
          101,
          102,
          103,
          104,
          105,
          106,
          107,
          108,
          109,
          110,
          111,
          112,
          113,
          114,
          115,
          116,
          117,
          118,
          119,
          120,
          121,
          122,
          123,
          124,
          125,
          126,
          127,
          128,
          129,
          130,
          131,
          132,
          133,
          134,
          135,
          136,
          137,
          138,
          139,
          140,
          141,
          142,
          143,
          144,
          145,
          146,
          147,
          148,
          149,
          150,
          151,
          152,
          153,
          154,
          155,
          156,
          157,
          158,
          159,
          160,
          161,
          162,
          163,
          164
        ],
        "AcquisitionTime": [
          "082759.142500",
          "082801.652500",
          "082804.162500",
          "082806.672500",
          "082809.182500",
          "082811.692500",
          "082814.202500",
          "082816.712500",
          "082819.222500",
          "082821.732500",
          "082824.242500",
          "082826.752500",
          "082829.262500",
          "082831.772500",
          "082834.282500",
          "082836.792500",
          "082839.302500",
          "082841.812500",
          "082844.322500",
          "082846.832500",
          "082849.342500",
          "082851.852500",
          "082854.362500",
          "082856.872500",
          "082859.382500",
          "082901.892500",
          "082904.402500",
          "082906.912500",
          "082909.422500",
          "082911.932500",
          "082914.442500",
          "082916.952500",
          "082919.462500",
          "082921.972500",
          "082924.482500",
          "082926.992500",
          "082929.502500",
          "082932.012500",
          "082934.522500",
          "082937.032500",
          "082939.542500",
          "082942.052500",
          "082944.562500",
          "082947.072500",
          "082949.582500",
          "082952.092500",
          "082954.602500",
          "082957.112500",
          "082959.622500",
          "083002.132500",
          "083004.642500",
          "083007.152500",
          "083009.662500",
          "083012.172500",
          "083014.682500",
          "083017.192500",
          "083019.705000",
          "083022.215000",
          "083024.725000",
          "083027.235000",
          "083029.745000",
          "083032.255000",
          "083034.765000",
          "083037.275000",
          "083039.785000",
          "083042.295000",
          "083044.805000",
          "083047.315000",
          "083049.825000",
          "083052.335000",
          "083054.845000",
          "083057.355000",
          "083059.865000",
          "083102.375000",
          "083104.885000",
          "083107.395000",
          "083109.905000",
          "083112.415000",
          "083114.925000",
          "083117.435000",
          "083119.945000",
          "083122.455000",
          "083124.965000",
          "083127.475000",
          "083129.985000",
          "083132.495000",
          "083135.005000",
          "083137.515000",
          "083140.025000",
          "083142.535000",
          "083145.045000",
          "083147.555000",
          "083150.065000",
          "083152.575000",
          "083155.085000",
          "083157.595000",
          "083200.105000",
          "083202.615000",
          "083205.125000",
          "083207.635000",
          "083210.145000",
          "083212.655000",
          "083215.165000",
          "083217.675000",
          "083220.185000",
          "083222.695000",
          "083225.205000",
          "083227.715000",
          "083230.225000",
          "083232.735000",
          "083235.245000",
          "083237.755000",
          "083240.265000",
          "083242.775000",
          "083245.285000",
          "083247.795000",
          "083250.305000",
          "083252.815000",
          "083255.327500",
          "083257.837500",
          "083300.347500",
          "083302.857500",
          "083305.367500",
          "083307.877500",
          "083310.387500",
          "083312.897500",
          "083315.407500",
          "083317.917500",
          "083320.427500",
          "083322.937500",
          "083325.447500",
          "083327.957500",
          "083330.467500",
          "083332.977500",
          "083335.487500",
          "083337.997500",
          "083340.507500",
          "083343.017500",
          "083345.527500",
          "083348.037500",
          "083350.547500",
          "083353.057500",
          "083355.567500",
          "083358.077500",
          "083400.587500",
          "083403.097500",
          "083405.607500",
          "083408.117500",
          "083410.627500",
          "083413.137500",
          "083415.647500",
          "083418.157500",
          "083420.667500",
          "083423.177500",
          "083425.687500",
          "083428.197500",
          "083430.707500",
          "083433.217500",
          "083435.727500",
          "083438.237500",
          "083440.747500",
          "083443.257500",
          "083445.767500",
          "083448.277500"
        ],
        "ContentTime": [
          "082801.968000",
          "082804.468000",
          "082806.968000",
          "082809.468000",
          "082811.968000",
          "082814.468000",
          "082816.968000",
          "082819.468000",
          "082821.968000",
          "082824.468000",
          "082826.968000",
          "082829.468000",
          "082831.968000",
          "082834.468000",
          "082836.968000",
          "082839.468000",
          "082841.968000",
          "082844.468000",
          "082846.968000",
          "082849.468000",
          "082851.968000",
          "082854.468000",
          "082856.968000",
          "082859.468000",
          "082901.968000",
          "082904.468000",
          "082906.968000",
          "082909.468000",
          "082911.968000",
          "082914.468000",
          "082916.968000",
          "082919.468000",
          "082921.968000",
          "082924.468000",
          "082926.968000",
          "082929.468000",
          "082931.968000",
          "082934.468000",
          "082936.968000",
          "082939.468000",
          "082941.968000",
          "082944.468000",
          "082946.968000",
          "082949.468000",
          "082951.968000",
          "082954.468000",
          "082956.968000",
          "082959.468000",
          "083001.968000",
          "083004.468000",
          "083006.968000",
          "083009.468000",
          "083011.968000",
          "083014.468000",
          "083016.968000",
          "083019.468000",
          "083021.968000",
          "083024.468000",
          "083026.968000",
          "083029.468000",
          "083031.968000",
          "083034.468000",
          "083036.968000",
          "083039.468000",
          "083041.968000",
          "083044.468000",
          "083046.968000",
          "083049.468000",
          "083051.968000",
          "083054.468000",
          "083056.968000",
          "083059.468000",
          "083101.968000",
          "083104.468000",
          "083106.968000",
          "083109.468000",
          "083111.968000",
          "083114.468000",
          "083116.968000",
          "083119.468000",
          "083121.968000",
          "083124.468000",
          "083126.968000",
          "083129.468000",
          "083131.968000",
          "083134.468000",
          "083136.968000",
          "083139.468000",
          "083141.968000",
          "083144.468000",
          "083146.968000",
          "083149.468000",
          "083151.968000",
          "083154.468000",
          "083156.968000",
          "083159.468000",
          "083201.968000",
          "083204.468000",
          "083206.968000",
          "083209.468000",
          "083211.968000",
          "083214.468000",
          "083216.968000",
          "083219.468000",
          "083221.968000",
          "083224.468000",
          "083226.968000",
          "083229.468000",
          "083231.968000",
          "083234.468000",
          "083236.968000",
          "083239.468000",
          "083241.968000",
          "083244.468000",
          "083246.968000",
          "083249.468000",
          "083251.968000",
          "083254.468000",
          "083256.968000",
          "083259.468000",
          "083301.968000",
          "083304.468000",
          "083306.968000",
          "083309.468000",
          "083311.968000",
          "083314.468000",
          "083316.968000",
          "083319.468000",
          "083321.968000",
          "083324.468000",
          "083326.968000",
          "083329.468000",
          "083331.968000",
          "083334.468000",
          "083336.968000",
          "083339.468000",
          "083341.968000",
          "083344.468000",
          "083346.968000",
          "083349.468000",
          "083351.968000",
          "083354.468000",
          "083356.968000",
          "083359.468000",
          "083401.968000",
          "083404.468000",
          "083406.968000",
          "083409.468000",
          "083411.968000",
          "083414.468000",
          "083416.968000",
          "083419.468000",
          "083421.968000",
          "083424.468000",
          "083426.968000",
          "083429.468000",
          "083431.968000",
          "083434.468000",
          "083436.968000",
          "083439.468000",
          "083441.968000",
          "083444.468000",
          "083446.968000",
          "083449.187000"
        ],
        "InstanceCreationTime": [
          "082801.968000",
          "082804.468000",
          "082806.968000",
          "082809.468000",
          "082811.968000",
          "082814.468000",
          "082816.968000",
          "082819.468000",
          "082821.968000",
          "082824.468000",
          "082826.968000",
          "082829.468000",
          "082831.968000",
          "082834.468000",
          "082836.968000",
          "082839.468000",
          "082841.968000",
          "082844.468000",
          "082846.968000",
          "082849.468000",
          "082851.968000",
          "082854.468000",
          "082856.968000",
          "082859.468000",
          "082901.968000",
          "082904.468000",
          "082906.968000",
          "082909.468000",
          "082911.968000",
          "082914.468000",
          "082916.968000",
          "082919.468000",
          "082921.968000",
          "082924.468000",
          "082926.968000",
          "082929.468000",
          "082931.968000",
          "082934.468000",
          "082936.968000",
          "082939.468000",
          "082941.968000",
          "082944.468000",
          "082946.968000",
          "082949.468000",
          "082951.968000",
          "082954.468000",
          "082956.968000",
          "082959.468000",
          "083001.968000",
          "083004.468000",
          "083006.968000",
          "083009.468000",
          "083011.968000",
          "083014.468000",
          "083016.968000",
          "083019.468000",
          "083021.968000",
          "083024.468000",
          "083026.968000",
          "083029.468000",
          "083031.968000",
          "083034.468000",
          "083036.968000",
          "083039.468000",
          "083041.968000",
          "083044.468000",
          "083046.968000",
          "083049.468000",
          "083051.968000",
          "083054.468000",
          "083056.968000",
          "083059.468000",
          "083101.968000",
          "083104.468000",
          "083106.968000",
          "083109.468000",
          "083111.968000",
          "083114.468000",
          "083116.968000",
          "083119.468000",
          "083121.968000",
          "083124.468000",
          "083126.968000",
          "083129.468000",
          "083131.968000",
          "083134.468000",
          "083136.968000",
          "083139.468000",
          "083141.968000",
          "083144.468000",
          "083146.968000",
          "083149.468000",
          "083151.968000",
          "083154.468000",
          "083156.968000",
          "083159.468000",
          "083201.968000",
          "083204.468000",
          "083206.968000",
          "083209.468000",
          "083211.968000",
          "083214.468000",
          "083216.968000",
          "083219.468000",
          "083221.968000",
          "083224.468000",
          "083226.968000",
          "083229.468000",
          "083231.968000",
          "083234.468000",
          "083236.968000",
          "083239.468000",
          "083241.968000",
          "083244.468000",
          "083246.968000",
          "083249.468000",
          "083251.968000",
          "083254.468000",
          "083256.968000",
          "083259.468000",
          "083301.968000",
          "083304.468000",
          "083306.968000",
          "083309.468000",
          "083311.968000",
          "083314.468000",
          "083316.968000",
          "083319.468000",
          "083321.968000",
          "083324.468000",
          "083326.968000",
          "083329.468000",
          "083331.968000",
          "083334.468000",
          "083336.968000",
          "083339.468000",
          "083341.968000",
          "083344.468000",
          "083346.968000",
          "083349.468000",
          "083351.968000",
          "083354.468000",
          "083356.968000",
          "083359.468000",
          "083401.968000",
          "083404.468000",
          "083406.968000",
          "083409.468000",
          "083411.968000",
          "083414.468000",
          "083416.968000",
          "083419.468000",
          "083421.968000",
          "083424.468000",
          "083426.968000",
          "083429.468000",
          "083431.968000",
          "083434.468000",
          "083436.968000",
          "083439.468000",
          "083441.968000",
          "083444.468000",
          "083446.968000",
          "083449.187000"
        ],
        "InstanceNumber": [
          1,
          2,
          3,
          4,
          5,
          6,
          7,
          8,
          9,
          10,
          11,
          12,
          13,
          14,
          15,
          16,
          17,
          18,
          19,
          20,
          21,
          22,
          23,
          24,
          25,
          26,
          27,
          28,
          29,
          30,
          31,
          32,
          33,
          34,
          35,
          36,
          37,
          38,
          39,
          40,
          41,
          42,
          43,
          44,
          45,
          46,
          47,
          48,
          49,
          50,
          51,
          52,
          53,
          54,
          55,
          56,
          57,
          58,
          59,
          60,
          61,
          62,
          63,
          64,
          65,
          66,
          67,
          68,
          69,
          70,
          71,
          72,
          73,
          74,
          75,
          76,
          77,
          78,
          79,
          80,
          81,
          82,
          83,
          84,
          85,
          86,
          87,
          88,
          89,
          90,
          91,
          92,
          93,
          94,
          95,
          96,
          97,
          98,
          99,
          100,
          101,
          102,
          103,
          104,
          105,
          106,
          107,
          108,
          109,
          110,
          111,
          112,
          113,
          114,
          115,
          116,
          117,
          118,
          119,
          120,
          121,
          122,
          123,
          124,
          125,
          126,
          127,
          128,
          129,
          130,
          131,
          132,
          133,
          134,
          135,
          136,
          137,
          138,
          139,
          140,
          141,
          142,
          143,
          144,
          145,
          146,
          147,
          148,
          149,
          150,
          151,
          152,
          153,
          154,
          155,
          156,
          157,
          158,
          159,
          160,
          161,
          162,
          163,
          164
        ],
        "LargestImagePixelValue": [
          1325,
          1314,
          1340,
          1330,
          1336,
          1321,
          1397,
          1357,
          1326,
          1325,
          1399,
          1363,
          1311,
          1296,
          1398,
          1370,
          1402,
          1356,
          1350,
          1303,
          1315,
          1402,
          1327,
          1383,
          1326,
          1394,
          1355,
          1311,
          1390,
          1317,
          1381,
          1417,
          1390,
          1383,
          1395,
          1289,
          1404,
          1385,
          1321,
          1437,
          1433,
          1380,
          1395,
          1403,
          1421,
          1383,
          1421,
          1387,
          1419,
          1374,
          1389,
          1421,
          1349,
          1356,
          1324,
          1335,
          1304,
          1334,
          1387,
          1361,
          1353,
          1369,
          1326,
          1345,
          1340,
          1351,
          1358,
          1415,
          1409,
          1413,
          1344,
          1378,
          1351,
          1326,
          1421,
          1384,
          1312,
          1335,
          1347,
          1332,
          1309,
          1323,
          1352,
          1355,
          1331,
          1287,
          1395,
          1377,
          1335,
          1280,
          1300,
          1328,
          1409,
          1355,
          1352,
          1297,
          1320,
          1349,
          1315,
          1307,
          1285,
          1309,
          1317,
          1353,
          1433,
          1282,
          1316,
          1353,
          1329,
          1286,
          1335,
          1272,
          1307,
          1336,
          1282,
          1320,
          1364,
          1375,
          1389,
          1338,
          1317,
          1296,
          1415,
          1303,
          1422,
          1382,
          1420,
          1379,
          1415,
          1360,
          1317,
          1367,
          1321,
          1335,
          1420,
          1350,
          1432,
          1416,
          1418,
          1392,
          1337,
          1396,
          1389,
          1309,
          1388,
          1405,
          1427,
          1474,
          1402,
          1294,
          1386,
          1470,
          1425,
          1372,
          1399,
          1415,
          1449,
          1392,
          1403,
          1374,
          1407,
          1315,
          1353,
          1409
        ],
        "WindowCenter": [
          611.0,
          616.0,
          616.0,
          615.0,
          615.0,
          610.0,
          612.0,
          610.0,
          611.0,
          612.0,
          611.0,
          615.0,
          615.0,
          614.0,
          612.0,
          615.0,
          616.0,
          616.0,
          615.0,
          609.0,
          611.0,
          613.0,
          612.0,
          611.0,
          611.0,
          616.0,
          612.0,
          613.0,
          612.0,
          612.0,
          611.0,
          611.0,
          616.0,
          611.0,
          615.0,
          610.0,
          612.0,
          611.0,
          612.0,
          611.0,
          615.0,
          612.0,
          611.0,
          611.0,
          616.0,
          613.0,
          611.0,
          612.0,
          611.0,
          615.0,
          612.0,
          617.0,
          612.0,
          611.0,
          610.0,
          611.0,
          615.0,
          611.0,
          616.0,
          612.0,
          616.0,
          612.0,
          612.0,
          611.0,
          616.0,
          612.0,
          612.0,
          612.0,
          615.0,
          616.0,
          612.0,
          611.0,
          616.0,
          612.0,
          612.0,
          614.0,
          614.0,
          612.0,
          615.0,
          612.0,
          614.0,
          615.0,
          617.0,
          616.0,
          615.0,
          617.0,
          617.0,
          616.0,
          616.0,
          613.0,
          615.0,
          615.0,
          613.0,
          611.0,
          610.0,
          611.0,
          617.0,
          613.0,
          618.0,
          612.0,
          611.0,
          614.0,
          617.0,
          615.0,
          614.0,
          616.0,
          613.0,
          613.0,
          616.0,
          617.0,
          612.0,
          616.0,
          613.0,
          613.0,
          616.0,
          614.0,
          613.0,
          610.0,
          612.0,
          616.0,
          616.0,
          614.0,
          612.0,
          615.0,
          612.0,
          611.0,
          613.0,
          613.0,
          612.0,
          611.0,
          616.0,
          617.0,
          611.0,
          613.0,
          615.0,
          613.0,
          613.0,
          617.0,
          612.0,
          612.0,
          612.0,
          612.0,
          612.0,
          611.0,
          613.0,
          613.0,
          615.0,
          613.0,
          611.0,
          613.0,
