{
  "aor": 0.01620689024390244,
  "aqi": 0.012782596463414635,
  "bids_meta": {
    "AcquisitionMatrixPE": 64,
    "AcquisitionNumber": 1,
    "AcquisitionTime": "08:19:25.030000",
    "BandwidthPerPixelPhaseEncode": 26.483,
    "BaseResolution": 64,
    "BodyPartExamined": "HEAD",
    "CogAtlasID": "TODO",
    "ConversionSoftware": "dcm2niix",
    "ConversionSoftwareVersion": "v1.0.20171017 GCC6.3.0",
    "DerivedVendorReportedEchoSpacing": 0.000590001,
    "DeviceSerialNumber": "35177",
    "DwellTime": 4.1e-06,
    "EchoTime": 0.027,
    "EffectiveEchoSpacing": 0.000590001,
    "FlipAngle": 90,
    "ImageOrientationPatientDICOM": [
      0.998266,
      -0.0582745,
      0.00832889,
      0.0545896,
      0.969368,
      0.239469
    ],
    "ImageType": [
      "ORIGINAL",
      "PRIMARY",
      "M",
      "ND",
      "NORM",
      "MOSAIC"
    ],
    "InPlanePhaseEncodingDirectionDICOM": "COL",
    "InstitutionAddress": "Scott_Ave._4525_St._Louis_MO_US_63110",
    "InstitutionName": "Washington_University",
    "InstitutionalDepartmentName": "Department",
    "MRAcquisitionType": "2D",
    "MagneticFieldStrength": 3,
    "Manufacturer": "Siemens",
    "ManufacturersModelName": "TrioTim",
    "Modality": "MR",
    "PartialFourier": 1,
    "PatientPosition": "HFS",
    "PercentPhaseFOV": 100,
    "PhaseEncodingDirection": "j-",
    "PhaseEncodingSteps": 64,
    "PhaseResolution": 1,
    "PixelBandwidth": 1905,
    "ProcedureStepDescription": "head_GREENE",
    "ProtocolName": "ep2d_bold_rest2",
    "PulseSequenceDetails": "%SiemensSeq%_ep2d_bold",
    "ReceiveCoilName": "HeadMatrix",
    "ReconMatrixPE": 64,
    "RepetitionTime": 2.5,
    "SAR": 0.146205,
    "ScanOptions": "FS",
    "ScanningSequence": "EP",
    "SequenceName": "_epfid2d1_64",
    "SequenceVariant": "SK",
    "SeriesDescription": "ep2d_bold_rest2",
    "SeriesNumber": 9,
    "ShimSetting": [
      -205,
      -19647,
      8001,
      289,
      69,
      -217,
      540,
      94
    ],
    "SliceThickness": 4,
    "SliceTiming": [
      1.255,
      0,
      1.3325,
      0.0775,
      1.4125,
      0.1575,
      1.49,
      0.235,
      1.5675,
      0.3125,
      1.6475,
      0.3925,
      1.725,
      0.47,
      1.8025,
      0.5475,
      1.8825,
      0.6275,
      1.96,
      0.705,
      2.04,
      0.785,
      2.1175,
      0.8625,
      2.195,
      0.94,
      2.275,
      1.02,
      2.3525,
      1.0975,
      2.43,
      1.175
    ],
    "SoftwareVersions": "syngo_MR_B17",
    "SpacingBetweenSlices": 4,
    "StationName": "MRC35177",
    "TaskName": "restfixationnofeedback",
    "TotalReadoutTime": 0.0371701,
    "TxRefAmp": 345.131,
    "dataset": "ds000256",
    "dcmmeta_affine": [
      [
        -3.993063449859619,
        0.21835851669311523,
        0.0881146714091301,
        126.60234832763672
      ],
      [
        0.2330980896949768,
        3.8774728775024414,
        0.9543942809104919,
        -147.8131866455078
      ],
      [
        0.03331556171178818,
        -0.9578748345375061,
        3.8834705352783203,
        12.151058197021484
      ],
      [
        0.0,
        0.0,
        0.0,
        1.0
      ]
    ],
    "dcmmeta_reorient_transform": [
      [
        0.0,
        -1.0,
        0.0,
        63.0
      ],
      [
        1.0,
        0.0,
        0.0,
        0.0
      ],
      [
        0.0,
        0.0,
        1.0,
        0.0
      ],
      [
        0.0,
        0.0,
        0.0,
        1.0
      ]
    ],
    "dcmmeta_shape": [
      64,
      64,
      32,
      164
    ],
    "dcmmeta_slice_dim": 2,
    "dcmmeta_version": 0.6,
    "global": {
      "const": {
        "AccessionNumber": ".",
        "AcquisitionMatrix": [
          64,
          0,
          0,
          64
        ],
        "AngioFlag": "N",
        "BitsAllocated": 16,
        "BitsStored": 12,
        "BodyPartExamined": "HEAD",
        "Columns": 384,
        "DeidentificationMethodCodeSequence": [
          {
            "CodeMeaning": "XNAT Edit Script",
            "CodeValue": "625500",
            "CodingSchemeDesignator": "XNAT",
            "CodingSchemeVersion": "0.1"
          }
        ],
        "EchoNumbers": 1,
        "EchoTime": 27.0,
        "EchoTrainLength": 1,
        "FlipAngle": 90.0,
        "HighBit": 11,
        "ImageOrientationPatient": [
          0.99826585116008,
          -0.0582745227024,
          0.0083288901684,
          0.05458962735144,
          0.96936820282353,
          0.23946870346732
        ],
        "ImagePositionPatient": [
          -814.18644421483,
          -679.5675510846,
          -206.78551495544
        ],
        "ImageType": [
          "ORIGINAL",
          "PRIMARY",
          "M",
          "ND",
          "NORM",
          "MOSAIC"
        ],
        "ImagedNucleus": "1H",
        "ImagingFrequency": 123.255926,
        "InPlanePhaseEncodingDirection": "COL",
        "MRAcquisitionType": "2D",
        "MagneticFieldStrength": 3.0,
        "Manufacturer": "SIEMENS",
        "ManufacturerModelName": "TrioTim",
        "Modality": "MR",
        "NumberOfAverages": 1.0,
        "NumberOfPhaseEncodingSteps": 64,
        "PercentPhaseFieldOfView": 100.0,
        "PercentSampling": 100.0,
        "PerformedProcedureStepStartTime": "073131.609000",
        "PhotometricInterpretation": "MONOCHROME2",
        "PixelBandwidth": 1905.0,
        "PixelRepresentation": 0,
        "PixelSpacing": [
          4.0,
          4.0
        ],
        "PositionReferenceIndicator": "",
        "ProtocolName": "ep2d_bold_rest2",
        "RepetitionTime": 2500.0,
        "Rows": 384,
        "SAR": 0.14620518365407,
        "SamplesPerPixel": 1,
        "ScanOptions": "FS",
        "ScanningSequence": "EP",
        "SequenceName": "*epfid2d1_64",
        "SequenceVariant": "SK",
        "SeriesDescription": "ep2d_bold_rest2",
        "SeriesNumber": 9,
        "SeriesTime": "081927.703000",
        "SliceLocation": -20.682082483044,
        "SliceThickness": 4.0,
        "SmallestImagePixelValue": 0,
        "SoftwareVersions": "syngo MR B17",
        "SpacingBetweenSlices": 3.9999969294343,
        "SpecificCharacterSet": "ISO_IR 100",
        "StudyID": "1",
        "StudyTime": "073131.562000",
        "TransmitCoilName": "Body",
        "VariableFlipAngleFlag": "N",
        "WindowCenterWidthExplanation": "Algo1",
        "dBdt": 0.0
      },
      "slices": {}
    },
    "modality": "bold",
    "subject_id": "CTS230",
    "task_id": "restfixationnofeedback",
    "time": {
      "samples": {
        "AcquisitionNumber": [
          1,
          2,
          3,
          4,
          5,
          6,
          7,
          8,
          9,
          10,
          11,
          12,
          13,
          14,
          15,
          16,
          17,
          18,
          19,
          20,
          21,
          22,
          23,
          24,
          25,
          26,
          27,
          28,
          29,
          30,
          31,
          32,
          33,
          34,
          35,
          36,
          37,
          38,
          39,
          40,
          41,
          42,
          43,
          44,
          45,
          46,
          47,
          48,
          49,
          50,
          51,
          52,
          53,
          54,
          55,
          56,
          57,
          58,
          59,
          60,
          61,
          62,
          63,
          64,
          65,
          66,
          67,
          68,
          69,
          70,
          71,
          72,
          73,
          74,
          75,
          76,
          77,
          78,
          79,
          80,
          81,
          82,
          83,
          84,
          85,
          86,
          87,
          88,
          89,
          90,
          91,
          92,
          93,
          94,
          95,
          96,
          97,
          98,
          99,
          100,
          101,
          102,
          103,
          104,
          105,
          106,
          107,
          108,
          109,
          110,
          111,
          112,
          113,
          114,
          115,
          116,
          117,
          118,
          119,
          120,
          121,
          122,
          123,
          124,
          125,
          126,
          127,
          128,
          129,
          130,
          131,
          132,
          133,
          134,
          135,
          136,
          137,
          138,
          139,
          140,
          141,
          142,
          143,
          144,
          145,
          146,
          147,
          148,
          149,
          150,
          151,
          152,
          153,
          154,
          155,
          156,
          157,
          158,
          159,
          160,
          161,
          162,
          163,
          164
        ],
        "AcquisitionTime": [
          "081925.030000",
          "081927.540000",
          "081930.050000",
          "081932.560000",
          "081935.070000",
          "081937.580000",
          "081940.090000",
          "081942.600000",
          "081945.110000",
          "081947.620000",
          "081950.130000",
          "081952.640000",
          "081955.150000",
          "081957.660000",
          "082000.170000",
          "082002.680000",
          "082005.190000",
          "082007.700000",
          "082010.210000",
          "082012.720000",
          "082015.230000",
          "082017.740000",
          "082020.250000",
          "082022.760000",
          "082025.270000",
          "082027.780000",
          "082030.290000",
          "082032.800000",
          "082035.310000",
          "082037.820000",
          "082040.330000",
          "082042.840000",
          "082045.350000",
          "082047.860000",
          "082050.370000",
          "082052.880000",
          "082055.390000",
          "082057.900000",
          "082100.410000",
          "082102.920000",
          "082105.430000",
          "082107.940000",
          "082110.450000",
          "082112.960000",
          "082115.472500",
          "082117.982500",
          "082120.492500",
          "082123.002500",
          "082125.512500",
          "082128.022500",
          "082130.532500",
          "082133.042500",
          "082135.552500",
          "082138.062500",
          "082140.572500",
          "082143.082500",
          "082145.592500",
          "082148.102500",
          "082150.612500",
          "082153.122500",
          "082155.632500",
          "082158.142500",
          "082200.652500",
          "082203.162500",
          "082205.672500",
          "082208.182500",
          "082210.692500",
          "082213.202500",
          "082215.712500",
          "082218.222500",
          "082220.732500",
          "082223.242500",
          "082225.752500",
          "082228.262500",
          "082230.772500",
          "082233.282500",
          "082235.792500",
          "082238.302500",
          "082240.812500",
          "082243.322500",
          "082245.832500",
          "082248.342500",
          "082250.852500",
          "082253.362500",
          "082255.872500",
          "082258.382500",
          "082300.892500",
          "082303.402500",
          "082305.912500",
          "082308.422500",
          "082310.932500",
          "082313.442500",
          "082315.952500",
          "082318.462500",
          "082320.972500",
          "082323.482500",
          "082325.992500",
          "082328.502500",
          "082331.012500",
          "082333.522500",
          "082336.032500",
          "082338.542500",
          "082341.052500",
          "082343.562500",
          "082346.072500",
          "082348.582500",
          "082351.095000",
          "082353.605000",
          "082356.115000",
          "082358.625000",
          "082401.135000",
          "082403.645000",
          "082406.155000",
          "082408.665000",
          "082411.175000",
          "082413.685000",
          "082416.195000",
          "082418.705000",
          "082421.215000",
          "082423.725000",
          "082426.235000",
          "082428.745000",
          "082431.255000",
          "082433.765000",
          "082436.275000",
          "082438.785000",
          "082441.295000",
          "082443.805000",
          "082446.315000",
          "082448.825000",
          "082451.335000",
          "082453.845000",
          "082456.355000",
          "082458.865000",
          "082501.375000",
          "082503.885000",
          "082506.395000",
          "082508.905000",
          "082511.415000",
          "082513.925000",
          "082516.435000",
          "082518.945000",
          "082521.455000",
          "082523.965000",
          "082526.475000",
          "082528.985000",
          "082531.495000",
          "082534.005000",
          "082536.515000",
          "082539.025000",
          "082541.535000",
          "082544.045000",
          "082546.555000",
          "082549.065000",
          "082551.575000",
          "082554.085000",
          "082556.595000",
          "082559.105000",
          "082601.615000",
          "082604.125000",
          "082606.635000",
          "082609.145000",
          "082611.655000",
          "082614.165000"
        ],
        "ContentTime": [
          "081927.703000",
          "081930.203000",
          "081932.703000",
          "081935.203000",
          "081937.703000",
          "081940.203000",
          "081942.703000",
          "081945.203000",
          "081947.703000",
          "081950.203000",
          "081952.703000",
          "081955.203000",
          "081957.703000",
          "082000.203000",
          "082002.703000",
          "082005.203000",
          "082007.703000",
          "082010.203000",
          "082012.703000",
          "082015.203000",
          "082017.703000",
          "082020.203000",
          "082022.703000",
          "082025.203000",
          "082027.703000",
          "082030.203000",
          "082032.703000",
          "082035.203000",
          "082037.703000",
          "082040.203000",
          "082042.703000",
          "082045.203000",
          "082047.703000",
          "082050.203000",
          "082052.703000",
          "082055.203000",
          "082057.703000",
          "082100.203000",
          "082102.703000",
          "082105.203000",
          "082107.703000",
          "082110.203000",
          "082112.703000",
          "082115.203000",
          "082117.703000",
          "082120.203000",
          "082122.703000",
          "082125.203000",
          "082127.703000",
          "082130.203000",
          "082132.703000",
          "082135.203000",
          "082137.703000",
          "082140.203000",
          "082142.703000",
          "082145.203000",
          "082147.703000",
          "082150.203000",
          "082152.703000",
          "082155.203000",
          "082157.703000",
          "082200.203000",
          "082202.703000",
          "082205.203000",
          "082207.703000",
          "082210.203000",
          "082212.703000",
          "082215.203000",
          "082217.703000",
          "082220.203000",
          "082222.703000",
          "082225.203000",
          "082227.703000",
          "082230.203000",
          "082232.703000",
          "082235.203000",
          "082237.703000",
          "082240.203000",
          "082242.703000",
          "082245.203000",
          "082247.703000",
          "082250.203000",
          "082252.703000",
          "082255.203000",
          "082257.703000",
          "082300.203000",
          "082302.703000",
          "082305.203000",
          "082307.703000",
          "082310.203000",
          "082312.703000",
          "082315.203000",
          "082317.703000",
          "082320.203000",
          "082322.703000",
          "082325.203000",
          "082327.703000",
          "082330.203000",
          "082332.703000",
          "082335.203000",
          "082337.703000",
          "082340.203000",
          "082342.703000",
          "082345.203000",
          "082347.703000",
          "082350.203000",
          "082352.703000",
          "082355.203000",
          "082357.703000",
          "082400.203000",
          "082402.703000",
          "082405.203000",
          "082407.703000",
          "082410.203000",
          "082412.703000",
          "082415.203000",
          "082417.703000",
          "082420.203000",
          "082422.703000",
          "082425.203000",
          "082427.703000",
          "082430.203000",
          "082432.703000",
          "082435.203000",
          "082437.703000",
          "082440.203000",
          "082442.703000",
          "082445.203000",
          "082447.703000",
          "082450.203000",
          "082452.703000",
          "082455.203000",
          "082457.703000",
          "082500.203000",
          "082502.703000",
          "082505.203000",
          "082507.703000",
          "082510.203000",
          "082512.703000",
          "082515.203000",
          "082517.703000",
          "082520.203000",
          "082522.703000",
          "082525.203000",
          "082527.703000",
          "082530.203000",
          "082532.703000",
          "082535.203000",
          "082537.703000",
          "082540.203000",
          "082542.703000",
          "082545.203000",
          "082547.703000",
          "082550.203000",
          "082552.703000",
          "082555.203000",
          "082557.703000",
          "082600.203000",
          "082602.703000",
          "082605.203000",
          "082607.703000",
          "082610.203000",
          "082612.703000",
          "082614.812000"
        ],
        "InstanceCreationTime": [
          "081927.703000",
          "081930.203000",
          "081932.703000",
          "081935.203000",
          "081937.703000",
          "081940.203000",
          "081942.703000",
          "081945.203000",
          "081947.703000",
          "081950.203000",
          "081952.703000",
          "081955.203000",
          "081957.703000",
          "082000.203000",
          "082002.703000",
          "082005.203000",
          "082007.703000",
          "082010.203000",
          "082012.703000",
          "082015.203000",
          "082017.703000",
          "082020.203000",
          "082022.703000",
          "082025.203000",
          "082027.703000",
          "082030.203000",
          "082032.703000",
          "082035.203000",
          "082037.703000",
          "082040.203000",
          "082042.703000",
          "082045.203000",
          "082047.703000",
          "082050.203000",
          "082052.703000",
          "082055.203000",
          "082057.703000",
          "082100.203000",
          "082102.703000",
          "082105.203000",
          "082107.703000",
          "082110.203000",
          "082112.703000",
          "082115.203000",
          "082117.703000",
          "082120.203000",
          "082122.703000",
          "082125.203000",
          "082127.703000",
          "082130.203000",
          "082132.703000",
          "082135.203000",
          "082137.703000",
          "082140.203000",
          "082142.703000",
          "082145.203000",
          "082147.703000",
          "082150.203000",
          "082152.703000",
          "082155.203000",
          "082157.703000",
          "082200.203000",
          "082202.703000",
          "082205.203000",
          "082207.703000",
          "082210.203000",
          "082212.703000",
          "082215.203000",
          "082217.703000",
          "082220.203000",
          "082222.703000",
          "082225.203000",
          "082227.703000",
          "082230.203000",
          "082232.703000",
          "082235.203000",
          "082237.703000",
          "082240.203000",
          "082242.703000",
          "082245.203000",
          "082247.703000",
          "082250.203000",
          "082252.703000",
          "082255.203000",
          "082257.703000",
          "082300.203000",
          "082302.703000",
          "082305.203000",
          "082307.703000",
          "082310.203000",
          "082312.703000",
          "082315.203000",
          "082317.703000",
          "082320.203000",
          "082322.703000",
          "082325.203000",
          "082327.703000",
          "082330.203000",
          "082332.703000",
          "082335.203000",
          "082337.703000",
          "082340.203000",
          "082342.703000",
          "082345.203000",
          "082347.703000",
          "082350.203000",
          "082352.703000",
          "082355.203000",
          "082357.703000",
          "082400.203000",
          "082402.703000",
          "082405.203000",
          "082407.703000",
          "082410.203000",
          "082412.703000",
          "082415.203000",
          "082417.703000",
          "082420.203000",
          "082422.703000",
          "082425.203000",
          "082427.703000",
          "082430.203000",
          "082432.703000",
          "082435.203000",
          "082437.703000",
          "082440.203000",
          "082442.703000",
          "082445.203000",
          "082447.703000",
          "082450.203000",
          "082452.703000",
          "082455.203000",
          "082457.703000",
          "082500.203000",
          "082502.703000",
          "082505.203000",
          "082507.703000",
          "082510.203000",
          "082512.703000",
          "082515.203000",
          "082517.703000",
          "082520.203000",
          "082522.703000",
          "082525.203000",
          "082527.703000",
          "082530.203000",
          "082532.703000",
          "082535.203000",
          "082537.703000",
          "082540.203000",
          "082542.703000",
          "082545.203000",
          "082547.703000",
          "082550.203000",
          "082552.703000",
          "082555.203000",
          "082557.703000",
          "082600.203000",
          "082602.703000",
          "082605.203000",
          "082607.703000",
          "082610.203000",
          "082612.703000",
          "082614.812000"
        ],
        "InstanceNumber": [
          1,
          2,
          3,
          4,
          5,
          6,
          7,
          8,
          9,
          10,
          11,
          12,
          13,
          14,
          15,
          16,
          17,
          18,
          19,
          20,
          21,
          22,
          23,
          24,
          25,
          26,
          27,
          28,
          29,
          30,
          31,
          32,
          33,
          34,
          35,
          36,
          37,
          38,
          39,
          40,
          41,
          42,
          43,
          44,
          45,
          46,
          47,
          48,
          49,
          50,
          51,
          52,
          53,
          54,
          55,
          56,
          57,
          58,
          59,
          60,
          61,
          62,
          63,
          64,
          65,
          66,
          67,
          68,
          69,
          70,
          71,
          72,
          73,
          74,
          75,
          76,
          77,
          78,
          79,
          80,
          81,
          82,
          83,
          84,
          85,
          86,
          87,
          88,
          89,
          90,
          91,
          92,
          93,
          94,
          95,
          96,
          97,
          98,
          99,
          100,
          101,
          102,
          103,
          104,
          105,
          106,
          107,
          108,
          109,
          110,
          111,
          112,
          113,
          114,
          115,
          116,
          117,
          118,
          119,
          120,
          121,
          122,
          123,
          124,
          125,
          126,
          127,
          128,
          129,
          130,
          131,
          132,
          133,
          134,
          135,
          136,
          137,
          138,
          139,
          140,
          141,
          142,
          143,
          144,
          145,
          146,
          147,
          148,
          149,
          150,
          151,
          152,
          153,
          154,
          155,
          156,
          157,
          158,
          159,
          160,
          161,
          162,
          163,
          164
        ],
        "LargestImagePixelValue": [
          1417,
          1421,
          1323,
          1308,
          1373,
          1351,
          1368,
          1314,
          1385,
          1401,
          1350,
          1297,
          1372,
          1469,
          1423,
          1316,
          1423,
          1441,
          1370,
          1398,
          1392,
          1424,
          1386,
          1368,
          1323,
          1387,
          1332,
          1431,
          1374,
          1406,
          1435,
          1430,
          1363,
          1354,
          1477,
          1449,
          1410,
          1441,
          1446,
          1405,
          1492,
          1371,
          1432,
          1328,
          1409,
          1440,
          1377,
          1407,
          1438,
          1364,
          1429,
          1372,
          1318,
          1377,
          1383,
          1375,
          1369,
          1404,
          1349,
          1332,
          1390,
          1378,
          1356,
          1404,
          1384,
          1309,
          1391,
          1342,
          1400,
          1404,
          1394,
          1352,
          1437,
          1401,
          1372,
          1379,
          1380,
          1437,
          1351,
          1354,
          1391,
          1415,
          1343,
          1383,
          1366,
          1387,
          1383,
          1406,
          1398,
          1380,
          1384,
          1442,
          1413,
          1431,
          1378,
          1403,
          1385,
          1378,
          1391,
          1371,
          1377,
          1397,
          1316,
          1442,
          1323,
          1418,
          1336,
          1331,
          1402,
          1306,
          1367,
          1303,
          1417,
          1303,
          1325,
          1391,
          1313,
          1413,
          1395,
          1346,
          1353,
          1327,
          1402,
          1372,
          1372,
          1321,
          1391,
          1344,
          1336,
          1409,
          1375,
          1279,
          1388,
          1399,
          1359,
          1355,
          1342,
          1351,
          1339,
          1344,
          1370,
          1364,
          1336,
          1345,
          1373,
          1364,
          1345,
          1372,
          1311,
          1335,
          1251,
          1323,
          1418,
          1308,
          1356,
          1299,
          1391,
          1387,
          1361,
          1446,
          1345,
          1282,
          1272,
          1321
        ],
        "WindowCenter": [
          609.0,
          610.0,
          610.0,
          609.0,
          609.0,
          609.0,
          609.0,
          608.0,
          608.0,
          609.0,
          609.0,
          608.0,
          609.0,
          609.0,
          610.0,
          609.0,
          609.0,
          608.0,
          609.0,
          609.0,
          610.0,
          609.0,
          609.0,
          609.0,
          608.0,
          610.0,
          608.0,
          607.0,
          608.0,
          609.0,
          609.0,
          609.0,
          609.0,
          608.0,
          609.0,
          610.0,
          611.0,
          611.0,
          609.0,
          609.0,
          611.0,
          609.0,
          609.0,
          609.0,
          609.0,
          609.0,
          609.0,
          610.0,
          610.0,
          609.0,
          609.0,
          610.0,
          609.0,
          610.0,
          610.0,
          609.0,
          609.0,
          611.0,
          609.0,
          610.0,
          608.0,
          610.0,
          610.0,
          609.0,
          610.0,
          609.0,
          610.0,
          609.0,
          610.0,
          611.0,
          609.0,
          610.0,
          609.0,
          609.0,
          610.0,
          610.0,
          609.0,
          609.0,
          609.0,
          610.0,
          610.0,
          610.0,
          609.0,
          610.0,
          609.0,
          610.0,
          610.0,
          610.0,
          609.0,
          610.0,
          609.0,
          611.0,
          609.0,
          610.0,
          609.0,
          609.0,
          609.0,
          610.0,
          611.0,
          610.0,
          610.0,
          610.0,
          608.0,
          609.0,
          609.0,
          609.0,
          610.0,
          610.0,
          610.0,
          609.0,
          608.0,
          610.0,
          610.0,
          608.0,
          609.0,
          609.0,
          610.0,
          609.0,
          609.0,
          608.0,
          609.0,
          610.0,
          610.0,
          610.0,
          610.0,
          610.0,
          611.0,
          611.0,
          610.0,
          610.0,
          610.0,
          609.0,
          609.0,
          609.0,
          610.0,
          610.0,
          610.0,
          610.0,
          610.0,
          609.0,
          611.0,
          610.0,
          610.0,
          609.0,
          609.0,
          610.0,
          610.0,
          609.0,
          609.0,
          608.0,
