{
  "aor": 0.007539512195121952,
  "aqi": 0.010914612682926829,
  "bids_meta": {
    "AcquisitionMatrixPE": 64,
    "AcquisitionNumber": 1,
    "AcquisitionTime": "08:02:54.177500",
    "BandwidthPerPixelPhaseEncode": 26.483,
    "BaseResolution": 64,
    "BodyPartExamined": "HEAD",
    "CogAtlasID": "TODO",
    "ConversionSoftware": "dcm2niix",
    "ConversionSoftwareVersion": "v1.0.20171017 GCC6.3.0",
    "DerivedVendorReportedEchoSpacing": 0.000590001,
    "DeviceSerialNumber": "35177",
    "DwellTime": 4.1e-06,
    "EchoTime": 0.027,
    "EffectiveEchoSpacing": 0.000590001,
    "FlipAngle": 90,
    "ImageOrientationPatientDICOM": [
      0.998266,
      -0.0582745,
      0.00832889,
      0.0545896,
      0.969368,
      0.239469
    ],
    "ImageType": [
      "ORIGINAL",
      "PRIMARY",
      "M",
      "ND",
      "NORM",
      "MOSAIC"
    ],
    "InPlanePhaseEncodingDirectionDICOM": "COL",
    "InstitutionAddress": "Scott_Ave._4525_St._Louis_MO_US_63110",
    "InstitutionName": "Washington_University",
    "InstitutionalDepartmentName": "Department",
    "MRAcquisitionType": "2D",
    "MagneticFieldStrength": 3,
    "Manufacturer": "Siemens",
    "ManufacturersModelName": "TrioTim",
    "Modality": "MR",
    "PartialFourier": 1,
    "PatientPosition": "HFS",
    "PercentPhaseFOV": 100,
    "PhaseEncodingDirection": "j-",
    "PhaseEncodingSteps": 64,
    "PhaseResolution": 1,
    "PixelBandwidth": 1905,
    "ProcedureStepDescription": "head_GREENE",
    "ProtocolName": "ep2d_bold_nonad_movie_3B",
    "PulseSequenceDetails": "%SiemensSeq%_ep2d_bold",
    "ReceiveCoilName": "HeadMatrix",
    "ReconMatrixPE": 64,
    "RepetitionTime": 2.5,
    "SAR": 0.146205,
    "ScanOptions": "FS",
    "ScanningSequence": "EP",
    "SequenceName": "_epfid2d1_64",
    "SequenceVariant": "SK",
    "SeriesDescription": "ep2d_bold_nonad_movie_3B",
    "SeriesNumber": 7,
    "ShimSetting": [
      -205,
      -19647,
      8001,
      289,
      69,
      -217,
      540,
      94
    ],
    "SliceThickness": 4,
    "SliceTiming": [
      1.255,
      0,
      1.3325,
      0.0775,
      1.41,
      0.155,
      1.49,
      0.235,
      1.5675,
      0.3125,
      1.645,
      0.3925,
      1.725,
      0.47,
      1.8025,
      0.5475,
      1.8825,
      0.6275,
      1.96,
      0.705,
      2.0375,
      0.7825,
      2.1175,
      0.8625,
      2.195,
      0.94,
      2.2725,
      1.02,
      2.3525,
      1.0975,
      2.43,
      1.175
    ],
    "SoftwareVersions": "syngo_MR_B17",
    "SpacingBetweenSlices": 4,
    "StationName": "MRC35177",
    "TaskName": "restmoviefixed",
    "TotalReadoutTime": 0.0371701,
    "TxRefAmp": 345.131,
    "dataset": "ds000256",
    "dcmmeta_affine": [
      [
        -3.993063449859619,
        0.21835851669311523,
        0.0881146714091301,
        126.60234832763672
      ],
      [
        0.2330980896949768,
        3.8774728775024414,
        0.9543942809104919,
        -147.8131866455078
      ],
      [
        0.03331556171178818,
        -0.9578748345375061,
        3.8834705352783203,
        12.151058197021484
      ],
      [
        0.0,
        0.0,
        0.0,
        1.0
      ]
    ],
    "dcmmeta_reorient_transform": [
      [
        0.0,
        -1.0,
        0.0,
        63.0
      ],
      [
        1.0,
        0.0,
        0.0,
        0.0
      ],
      [
        0.0,
        0.0,
        1.0,
        0.0
      ],
      [
        0.0,
        0.0,
        0.0,
        1.0
      ]
    ],
    "dcmmeta_shape": [
      64,
      64,
      32,
      164
    ],
    "dcmmeta_slice_dim": 2,
    "dcmmeta_version": 0.6,
    "global": {
      "const": {
        "AccessionNumber": ".",
        "AcquisitionMatrix": [
          64,
          0,
          0,
          64
        ],
        "AngioFlag": "N",
        "BitsAllocated": 16,
        "BitsStored": 12,
        "BodyPartExamined": "HEAD",
        "Columns": 384,
        "DeidentificationMethodCodeSequence": [
          {
            "CodeMeaning": "XNAT Edit Script",
            "CodeValue": "625500",
            "CodingSchemeDesignator": "XNAT",
            "CodingSchemeVersion": "0.1"
          }
        ],
        "EchoNumbers": 1,
        "EchoTime": 27.0,
        "EchoTrainLength": 1,
        "FlipAngle": 90.0,
        "HighBit": 11,
        "ImageOrientationPatient": [
          0.99826585116008,
          -0.0582745227024,
          0.0083288901684,
          0.05458962735144,
          0.96936820282353,
          0.23946870346732
        ],
        "ImagePositionPatient": [
          -814.18644421483,
          -679.5675510846,
          -206.78551495544
        ],
        "ImageType": [
          "ORIGINAL",
          "PRIMARY",
          "M",
          "ND",
          "NORM",
          "MOSAIC"
        ],
        "ImagedNucleus": "1H",
        "ImagingFrequency": 123.25592,
        "InPlanePhaseEncodingDirection": "COL",
        "MRAcquisitionType": "2D",
        "MagneticFieldStrength": 3.0,
        "Manufacturer": "SIEMENS",
        "ManufacturerModelName": "TrioTim",
        "Modality": "MR",
        "NumberOfAverages": 1.0,
        "NumberOfPhaseEncodingSteps": 64,
        "PercentPhaseFieldOfView": 100.0,
        "PercentSampling": 100.0,
        "PerformedProcedureStepStartTime": "073131.609000",
        "PhotometricInterpretation": "MONOCHROME2",
        "PixelBandwidth": 1905.0,
        "PixelRepresentation": 0,
        "PixelSpacing": [
          4.0,
          4.0
        ],
        "PositionReferenceIndicator": "",
        "ProtocolName": "ep2d_bold_nonad_movie_3B",
        "RepetitionTime": 2500.0,
        "Rows": 384,
        "SAR": 0.14620518365407,
        "SamplesPerPixel": 1,
        "ScanOptions": "FS",
        "ScanningSequence": "EP",
        "SequenceName": "*epfid2d1_64",
        "SequenceVariant": "SK",
        "SeriesDescription": "ep2d_bold_nonad_movie_3B",
        "SeriesNumber": 7,
        "SeriesTime": "080257.281000",
        "SliceLocation": -20.682082483044,
        "SliceThickness": 4.0,
        "SmallestImagePixelValue": 0,
        "SoftwareVersions": "syngo MR B17",
        "SpacingBetweenSlices": 3.9999969294343,
        "SpecificCharacterSet": "ISO_IR 100",
        "StudyID": "1",
        "StudyTime": "073131.562000",
        "TransmitCoilName": "Body",
        "VariableFlipAngleFlag": "N",
        "WindowCenterWidthExplanation": "Algo1",
        "dBdt": 0.0
      },
      "slices": {}
    },
    "modality": "bold",
    "subject_id": "CTS230",
    "task_id": "restmoviefixed",
    "time": {
      "samples": {
        "AcquisitionNumber": [
          1,
          2,
          3,
          4,
          5,
          6,
          7,
          8,
          9,
          10,
          11,
          12,
          13,
          14,
          15,
          16,
          17,
          18,
          19,
          20,
          21,
          22,
          23,
          24,
          25,
          26,
          27,
          28,
          29,
          30,
          31,
          32,
          33,
          34,
          35,
          36,
          37,
          38,
          39,
          40,
          41,
          42,
          43,
          44,
          45,
          46,
          47,
          48,
          49,
          50,
          51,
          52,
          53,
          54,
          55,
          56,
          57,
          58,
          59,
          60,
          61,
          62,
          63,
          64,
          65,
          66,
          67,
          68,
          69,
          70,
          71,
          72,
          73,
          74,
          75,
          76,
          77,
          78,
          79,
          80,
          81,
          82,
          83,
          84,
          85,
          86,
          87,
          88,
          89,
          90,
          91,
          92,
          93,
          94,
          95,
          96,
          97,
          98,
          99,
          100,
          101,
          102,
          103,
          104,
          105,
          106,
          107,
          108,
          109,
          110,
          111,
          112,
          113,
          114,
          115,
          116,
          117,
          118,
          119,
          120,
          121,
          122,
          123,
          124,
          125,
          126,
          127,
          128,
          129,
          130,
          131,
          132,
          133,
          134,
          135,
          136,
          137,
          138,
          139,
          140,
          141,
          142,
          143,
          144,
          145,
          146,
          147,
          148,
          149,
          150,
          151,
          152,
          153,
          154,
          155,
          156,
          157,
          158,
          159,
          160,
          161,
          162,
          163,
          164
        ],
        "AcquisitionTime": [
          "080254.177500",
          "080256.687500",
          "080259.197500",
          "080301.707500",
          "080304.217500",
          "080306.727500",
          "080309.237500",
          "080311.747500",
          "080314.257500",
          "080316.767500",
          "080319.277500",
          "080321.787500",
          "080324.297500",
          "080326.807500",
          "080329.317500",
          "080331.827500",
          "080334.337500",
          "080336.847500",
          "080339.357500",
          "080341.867500",
          "080344.377500",
          "080346.887500",
          "080349.397500",
          "080351.907500",
          "080354.417500",
          "080356.927500",
          "080359.437500",
          "080401.947500",
          "080404.457500",
          "080406.967500",
          "080409.477500",
          "080411.987500",
          "080414.497500",
          "080417.007500",
          "080419.517500",
          "080422.027500",
          "080424.537500",
          "080427.047500",
          "080429.557500",
          "080432.067500",
          "080434.577500",
          "080437.087500",
          "080439.597500",
          "080442.107500",
          "080444.617500",
          "080447.127500",
          "080449.637500",
          "080452.147500",
          "080454.657500",
          "080457.167500",
          "080459.677500",
          "080502.187500",
          "080504.697500",
          "080507.207500",
          "080509.717500",
          "080512.230000",
          "080514.740000",
          "080517.250000",
          "080519.760000",
          "080522.270000",
          "080524.780000",
          "080527.290000",
          "080529.800000",
          "080532.310000",
          "080534.820000",
          "080537.330000",
          "080539.840000",
          "080542.350000",
          "080544.860000",
          "080547.370000",
          "080549.880000",
          "080552.390000",
          "080554.900000",
          "080557.410000",
          "080559.920000",
          "080602.430000",
          "080604.940000",
          "080607.450000",
          "080609.960000",
          "080612.470000",
          "080614.980000",
          "080617.490000",
          "080620.000000",
          "080622.510000",
          "080625.020000",
          "080627.530000",
          "080630.040000",
          "080632.550000",
          "080635.060000",
          "080637.570000",
          "080640.080000",
          "080642.590000",
          "080645.100000",
          "080647.610000",
          "080650.120000",
          "080652.630000",
          "080655.140000",
          "080657.650000",
          "080700.160000",
          "080702.670000",
          "080705.180000",
          "080707.690000",
          "080710.200000",
          "080712.710000",
          "080715.220000",
          "080717.730000",
          "080720.240000",
          "080722.750000",
          "080725.260000",
          "080727.770000",
          "080730.280000",
          "080732.790000",
          "080735.300000",
          "080737.810000",
          "080740.320000",
          "080742.830000",
          "080745.340000",
          "080747.852500",
          "080750.362500",
          "080752.872500",
          "080755.382500",
          "080757.892500",
          "080800.402500",
          "080802.912500",
          "080805.422500",
          "080807.932500",
          "080810.442500",
          "080812.952500",
          "080815.462500",
          "080817.972500",
          "080820.482500",
          "080822.992500",
          "080825.502500",
          "080828.012500",
          "080830.522500",
          "080833.032500",
          "080835.542500",
          "080838.052500",
          "080840.562500",
          "080843.072500",
          "080845.582500",
          "080848.092500",
          "080850.602500",
          "080853.112500",
          "080855.622500",
          "080858.132500",
          "080900.642500",
          "080903.152500",
          "080905.662500",
          "080908.172500",
          "080910.682500",
          "080913.192500",
          "080915.702500",
          "080918.212500",
          "080920.722500",
          "080923.232500",
          "080925.742500",
          "080928.252500",
          "080930.762500",
          "080933.272500",
          "080935.782500",
          "080938.292500",
          "080940.802500",
          "080943.312500"
        ],
        "ContentTime": [
          "080257.281000",
          "080259.781000",
          "080302.281000",
          "080304.781000",
          "080307.281000",
          "080309.781000",
          "080312.281000",
          "080314.781000",
          "080317.281000",
          "080319.781000",
          "080322.281000",
          "080324.781000",
          "080327.281000",
          "080329.781000",
          "080332.281000",
          "080334.781000",
          "080337.281000",
          "080339.781000",
          "080342.281000",
          "080344.781000",
          "080347.281000",
          "080349.781000",
          "080352.281000",
          "080354.781000",
          "080357.281000",
          "080359.781000",
          "080402.281000",
          "080404.781000",
          "080407.281000",
          "080409.781000",
          "080412.281000",
          "080414.781000",
          "080417.281000",
          "080419.781000",
          "080422.281000",
          "080424.781000",
          "080427.281000",
          "080429.781000",
          "080432.281000",
          "080434.781000",
          "080437.281000",
          "080439.781000",
          "080442.281000",
          "080444.781000",
          "080447.281000",
          "080449.781000",
          "080452.281000",
          "080454.781000",
          "080457.281000",
          "080459.781000",
          "080502.281000",
          "080504.781000",
          "080507.281000",
          "080509.781000",
          "080512.281000",
          "080514.781000",
          "080517.281000",
          "080519.781000",
          "080522.281000",
          "080524.781000",
          "080527.281000",
          "080529.781000",
          "080532.281000",
          "080534.781000",
          "080537.281000",
          "080539.781000",
          "080542.281000",
          "080544.781000",
          "080547.281000",
          "080549.781000",
          "080552.281000",
          "080554.781000",
          "080557.281000",
          "080559.781000",
          "080602.281000",
          "080604.781000",
          "080607.281000",
          "080609.781000",
          "080612.281000",
          "080614.781000",
          "080617.281000",
          "080619.781000",
          "080622.281000",
          "080624.781000",
          "080627.281000",
          "080629.781000",
          "080632.281000",
          "080634.781000",
          "080637.281000",
          "080639.781000",
          "080642.281000",
          "080644.781000",
          "080647.281000",
          "080649.781000",
          "080652.281000",
          "080654.781000",
          "080657.281000",
          "080659.781000",
          "080702.281000",
          "080704.781000",
          "080707.281000",
          "080709.781000",
          "080712.281000",
          "080714.781000",
          "080717.281000",
          "080719.781000",
          "080722.281000",
          "080724.781000",
          "080727.281000",
          "080729.781000",
          "080732.281000",
          "080734.781000",
          "080737.281000",
          "080739.781000",
          "080742.281000",
          "080744.781000",
          "080747.281000",
          "080749.781000",
          "080752.281000",
          "080754.781000",
          "080757.281000",
          "080759.781000",
          "080802.281000",
          "080804.781000",
          "080807.281000",
          "080809.781000",
          "080812.281000",
          "080814.781000",
          "080817.281000",
          "080819.781000",
          "080822.281000",
          "080824.781000",
          "080827.281000",
          "080829.781000",
          "080832.281000",
          "080834.781000",
          "080837.281000",
          "080839.781000",
          "080842.281000",
          "080844.781000",
          "080847.281000",
          "080849.781000",
          "080852.281000",
          "080854.781000",
          "080857.281000",
          "080859.781000",
          "080902.281000",
          "080904.781000",
          "080907.281000",
          "080909.781000",
          "080912.281000",
          "080914.781000",
          "080917.281000",
          "080919.781000",
          "080922.281000",
          "080924.781000",
          "080927.281000",
          "080929.781000",
          "080932.281000",
          "080934.781000",
          "080937.281000",
          "080939.781000",
          "080942.281000",
          "080944.546000"
        ],
        "InstanceCreationTime": [
          "080257.281000",
          "080259.781000",
          "080302.281000",
          "080304.781000",
          "080307.281000",
          "080309.781000",
          "080312.281000",
          "080314.781000",
          "080317.281000",
          "080319.781000",
          "080322.281000",
          "080324.781000",
          "080327.281000",
          "080329.781000",
          "080332.281000",
          "080334.781000",
          "080337.281000",
          "080339.781000",
          "080342.281000",
          "080344.781000",
          "080347.281000",
          "080349.781000",
          "080352.281000",
          "080354.781000",
          "080357.281000",
          "080359.781000",
          "080402.281000",
          "080404.781000",
          "080407.281000",
          "080409.781000",
          "080412.281000",
          "080414.781000",
          "080417.281000",
          "080419.781000",
          "080422.281000",
          "080424.781000",
          "080427.281000",
          "080429.781000",
          "080432.281000",
          "080434.781000",
          "080437.281000",
          "080439.781000",
          "080442.281000",
          "080444.781000",
          "080447.281000",
          "080449.781000",
          "080452.281000",
          "080454.781000",
          "080457.281000",
          "080459.781000",
          "080502.281000",
          "080504.781000",
          "080507.281000",
          "080509.781000",
          "080512.281000",
          "080514.781000",
          "080517.281000",
          "080519.781000",
          "080522.281000",
          "080524.781000",
          "080527.281000",
          "080529.781000",
          "080532.281000",
          "080534.781000",
          "080537.281000",
          "080539.781000",
          "080542.281000",
          "080544.781000",
          "080547.281000",
          "080549.781000",
          "080552.281000",
          "080554.781000",
          "080557.281000",
          "080559.781000",
          "080602.281000",
          "080604.781000",
          "080607.281000",
          "080609.781000",
          "080612.281000",
          "080614.781000",
          "080617.281000",
          "080619.781000",
          "080622.281000",
          "080624.781000",
          "080627.281000",
          "080629.781000",
          "080632.281000",
          "080634.781000",
          "080637.281000",
          "080639.781000",
          "080642.281000",
          "080644.781000",
          "080647.281000",
          "080649.781000",
          "080652.281000",
          "080654.781000",
          "080657.281000",
          "080659.781000",
          "080702.281000",
          "080704.781000",
          "080707.281000",
          "080709.781000",
          "080712.281000",
          "080714.781000",
          "080717.281000",
          "080719.781000",
          "080722.281000",
          "080724.781000",
          "080727.281000",
          "080729.781000",
          "080732.281000",
          "080734.781000",
          "080737.281000",
          "080739.781000",
          "080742.281000",
          "080744.781000",
          "080747.281000",
          "080749.781000",
          "080752.281000",
          "080754.781000",
          "080757.281000",
          "080759.781000",
          "080802.281000",
          "080804.781000",
          "080807.281000",
          "080809.781000",
          "080812.281000",
          "080814.781000",
          "080817.281000",
          "080819.781000",
          "080822.281000",
          "080824.781000",
          "080827.281000",
          "080829.781000",
          "080832.281000",
          "080834.781000",
          "080837.281000",
          "080839.781000",
          "080842.281000",
          "080844.781000",
          "080847.281000",
          "080849.781000",
          "080852.281000",
          "080854.781000",
          "080857.281000",
          "080859.781000",
          "080902.281000",
          "080904.781000",
          "080907.281000",
          "080909.781000",
          "080912.281000",
          "080914.781000",
          "080917.281000",
          "080919.781000",
          "080922.281000",
          "080924.781000",
          "080927.281000",
          "080929.781000",
          "080932.281000",
          "080934.781000",
          "080937.281000",
          "080939.781000",
          "080942.281000",
          "080944.546000"
        ],
        "InstanceNumber": [
          1,
          2,
          3,
          4,
          5,
          6,
          7,
          8,
          9,
          10,
          11,
          12,
          13,
          14,
          15,
          16,
          17,
          18,
          19,
          20,
          21,
          22,
          23,
          24,
          25,
          26,
          27,
          28,
          29,
          30,
          31,
          32,
          33,
          34,
          35,
          36,
          37,
          38,
          39,
          40,
          41,
          42,
          43,
          44,
          45,
          46,
          47,
          48,
          49,
          50,
          51,
          52,
          53,
          54,
          55,
          56,
          57,
          58,
          59,
          60,
          61,
          62,
          63,
          64,
          65,
          66,
          67,
          68,
          69,
          70,
          71,
          72,
          73,
          74,
          75,
          76,
          77,
          78,
          79,
          80,
          81,
          82,
          83,
          84,
          85,
          86,
          87,
          88,
          89,
          90,
          91,
          92,
          93,
          94,
          95,
          96,
          97,
          98,
          99,
          100,
          101,
          102,
          103,
          104,
          105,
          106,
          107,
          108,
          109,
          110,
          111,
          112,
          113,
          114,
          115,
          116,
          117,
          118,
          119,
          120,
          121,
          122,
          123,
          124,
          125,
          126,
          127,
          128,
          129,
          130,
          131,
          132,
          133,
          134,
          135,
          136,
          137,
          138,
          139,
          140,
          141,
          142,
          143,
          144,
          145,
          146,
          147,
          148,
          149,
          150,
          151,
          152,
          153,
          154,
          155,
          156,
          157,
          158,
          159,
          160,
          161,
          162,
          163,
          164
        ],
        "LargestImagePixelValue": [
          1315,
          1396,
          1304,
          1313,
          1303,
          1280,
          1315,
          1287,
          1296,
          1293,
          1298,
          1303,
          1370,
          1278,
          1310,
          1304,
          1282,
          1289,
          1278,
          1302,
          1318,
          1318,
          1331,
          1337,
          1285,
          1328,
          1377,
          1360,
          1353,
          1334,
          1322,
          1320,
          1285,
          1313,
          1338,
          1319,
          1319,
          1358,
          1281,
          1332,
          1324,
          1318,
          1319,
          1293,
          1352,
          1333,
          1307,
          1340,
          1294,
          1325,
          1305,
          1312,
          1344,
          1317,
          1316,
          1370,
          1353,
          1325,
          1291,
          1348,
          1375,
          1295,
          1350,
          1342,
          1326,
          1288,
          1334,
          1388,
          1331,
          1311,
          1340,
          1283,
          1317,
          1301,
          1358,
          1340,
          1354,
          1324,
          1372,
          1331,
          1346,
          1347,
          1377,
          1338,
          1377,
          1337,
          1384,
          1407,
          1366,
          1356,
          1342,
          1376,
          1357,
          1312,
          1346,
          1315,
          1331,
          1368,
          1351,
          1326,
          1328,
          1345,
          1376,
          1401,
          1361,
          1393,
          1321,
          1361,
          1372,
          1371,
          1382,
          1394,
          1340,
          1365,
          1382,
          1397,
          1341,
          1403,
          1406,
          1322,
          1393,
          1432,
          1289,
          1374,
          1362,
          1320,
          1319,
          1343,
          1346,
          1340,
          1301,
          1358,
          1308,
          1299,
          1399,
          1338,
          1331,
          1343,
          1317,
          1365,
          1340,
          1399,
          1337,
          1412,
          1330,
          1377,
          1380,
          1314,
          1346,
          1459,
          1344,
          1392,
          1446,
          1333,
          1426,
          1339,
          1389,
          1462,
          1411,
          1435,
          1336,
          1392,
          1352,
          1319
        ],
        "WindowCenter": [
          608.0,
          608.0,
          606.0,
          607.0,
          607.0,
          608.0,
          608.0,
          608.0,
          608.0,
          608.0,
          608.0,
          609.0,
          608.0,
          608.0,
          607.0,
          608.0,
          607.0,
          608.0,
          608.0,
          607.0,
          607.0,
          609.0,
          609.0,
          608.0,
          607.0,
          607.0,
          607.0,
          608.0,
          608.0,
          607.0,
          608.0,
          608.0,
          606.0,
          608.0,
          608.0,
          608.0,
          607.0,
          606.0,
          608.0,
          607.0,
          607.0,
          607.0,
          608.0,
          608.0,
          608.0,
          608.0,
          608.0,
          608.0,
          607.0,
          609.0,
          609.0,
          609.0,
          610.0,
          609.0,
          609.0,
          609.0,
          608.0,
          609.0,
          609.0,
          609.0,
          608.0,
          607.0,
          608.0,
          608.0,
          608.0,
          608.0,
          608.0,
          607.0,
          608.0,
          608.0,
          608.0,
          608.0,
          608.0,
          608.0,
          609.0,
          608.0,
          608.0,
          608.0,
          607.0,
          607.0,
          608.0,
          607.0,
          606.0,
          607.0,
          608.0,
          606.0,
          607.0,
          607.0,
          608.0,
          609.0,
          608.0,
          608.0,
          608.0,
          608.0,
          608.0,
          608.0,
          607.0,
          608.0,
          607.0,
          607.0,
          607.0,
          608.0,
          608.0,
          608.0,
          608.0,
          609.0,
          608.0,
          609.0,
          609.0,
          609.0,
          609.0,
          608.0,
          608.0,
          607.0,
          608.0,
          607.0,
          607.0,
          608.0,
          607.0,
          607.0,
          609.0,
          608.0,
          607.0,
          608.0,
          608.0,
          608.0,
          608.0,
          609.0,
          608.0,
          609.0,
          608.0,
          609.0,
          608.0,
          609.0,
          609.0,
          609.0,
          608.0,
          608.0,
          607.0,
          607.0,
          607.0,
          608.0,
          608.0,
          608.0,
          608.0,
          609.0,
          608.0,
          608.0,
          608.0,
