{
  "aor": 0.0016849390243902443,
  "aqi": 0.0043416220121951215,
  "bids_meta": {
    "AcquisitionMatrixPE": 64,
    "AcquisitionNumber": 1,
    "AcquisitionTime": "16:11:23.832500",
    "BandwidthPerPixelPhaseEncode": 26.483,
    "BaseResolution": 64,
    "BodyPartExamined": "HEAD",
    "CogAtlasID": "TODO",
    "ConversionSoftware": "dcm2niix",
    "ConversionSoftwareVersion": "v1.0.20171017 GCC6.3.0",
    "DerivedVendorReportedEchoSpacing": 0.000590001,
    "DeviceSerialNumber": "35177",
    "DwellTime": 4.1e-06,
    "EchoTime": 0.027,
    "EffectiveEchoSpacing": 0.000590001,
    "FlipAngle": 90,
    "ImageOrientationPatientDICOM": [
      0.998355,
      0.0435742,
      0.037263,
      -0.0487645,
      0.987152,
      0.152161
    ],
    "ImageType": [
      "ORIGINAL",
      "PRIMARY",
      "M",
      "ND",
      "NORM",
      "MOSAIC"
    ],
    "InPlanePhaseEncodingDirectionDICOM": "COL",
    "InstitutionAddress": "Scott_Ave._4525_St._Louis_MO_US_63110",
    "InstitutionName": "Washington_University",
    "InstitutionalDepartmentName": "Department",
    "MRAcquisitionType": "2D",
    "MagneticFieldStrength": 3,
    "Manufacturer": "Siemens",
    "ManufacturersModelName": "TrioTim",
    "Modality": "MR",
    "PartialFourier": 1,
    "PatientPosition": "HFS",
    "PercentPhaseFOV": 100,
    "PhaseEncodingDirection": "j-",
    "PhaseEncodingSteps": 64,
    "PhaseResolution": 1,
    "PixelBandwidth": 1905,
    "ProcedureStepDescription": "head_GREENE",
    "ProtocolName": "ep2d_bold_feedback_movie_2A",
    "PulseSequenceDetails": "%SiemensSeq%_ep2d_bold",
    "ReceiveCoilName": "HeadMatrix",
    "ReconMatrixPE": 64,
    "RepetitionTime": 2.5,
    "SAR": 0.141138,
    "ScanOptions": "FS",
    "ScanningSequence": "EP",
    "SequenceName": "_epfid2d1_64",
    "SequenceVariant": "SK",
    "SeriesDescription": "ep2d_bold_feedback_movie_2A",
    "SeriesNumber": 8,
    "ShimSetting": [
      -246,
      -19610,
      8015,
      466,
      -98,
      -597,
      473,
      205
    ],
    "SliceThickness": 4,
    "SliceTiming": [
      1.255,
      0,
      1.335,
      0.08,
      1.4125,
      0.1575,
      1.49,
      0.2375,
      1.57,
      0.315,
      1.6475,
      0.3925,
      1.7275,
      0.4725,
      1.805,
      0.55,
      1.8825,
      0.6275,
      1.9625,
      0.7075,
      2.04,
      0.785,
      2.1175,
      0.8625,
      2.1975,
      0.9425,
      2.275,
      1.02,
      2.355,
      1.1,
      2.4325,
      1.1775
    ],
    "SoftwareVersions": "syngo_MR_B17",
    "SpacingBetweenSlices": 4,
    "StationName": "MRC35177",
    "TaskName": "restmoviefixed",
    "TotalReadoutTime": 0.0371701,
    "TxRefAmp": 300.411,
    "dataset": "ds000256",
    "dcmmeta_affine": [
      [
        -3.993420124053955,
        -0.19505809247493744,
        0.12061609327793121,
        133.52166748046875
      ],
      [
        -0.17429672181606293,
        3.948608160018921,
        0.6149094104766846,
        -127.9537582397461
      ],
      [
        0.1490521878004074,
        -0.6086421012878418,
        3.9506125450134277,
        -5.128543853759766
      ],
      [
        0.0,
        0.0,
        0.0,
        1.0
      ]
    ],
    "dcmmeta_reorient_transform": [
      [
        0.0,
        -1.0,
        0.0,
        63.0
      ],
      [
        1.0,
        0.0,
        0.0,
        0.0
      ],
      [
        0.0,
        0.0,
        1.0,
        0.0
      ],
      [
        0.0,
        0.0,
        0.0,
        1.0
      ]
    ],
    "dcmmeta_shape": [
      64,
      64,
      32,
      164
    ],
    "dcmmeta_slice_dim": 2,
    "dcmmeta_version": 0.6,
    "global": {
      "const": {
        "AccessionNumber": ".",
        "AcquisitionMatrix": [
          64,
          0,
          0,
          64
        ],
        "AngioFlag": "N",
        "BitsAllocated": 16,
        "BitsStored": 12,
        "BodyPartExamined": "HEAD",
        "Columns": 384,
        "DeidentificationMethodCodeSequence": [
          {
            "CodeMeaning": "XNAT Edit Script",
            "CodeValue": "625500",
            "CodingSchemeDesignator": "XNAT",
            "CodingSchemeVersion": "0.1"
          }
        ],
        "EchoNumbers": 1,
        "EchoTime": 27.0,
        "EchoTrainLength": 1,
        "FlipAngle": 90.0,
        "HighBit": 11,
        "ImageOrientationPatient": [
          0.99835502515944,
          0.04357418048557,
          0.03726304515074,
          -0.0487645232764,
          0.98715206230156,
          0.15216053089878
        ],
        "ImagePositionPatient": [
          -728.97092893958,
          -780.47336004371,
          -164.70408634378
        ],
        "ImageType": [
          "ORIGINAL",
          "PRIMARY",
          "M",
          "ND",
          "NORM",
          "MOSAIC"
        ],
        "ImagedNucleus": "1H",
        "ImagingFrequency": 123.255991,
        "InPlanePhaseEncodingDirection": "COL",
        "MRAcquisitionType": "2D",
        "MagneticFieldStrength": 3.0,
        "Manufacturer": "SIEMENS",
        "ManufacturerModelName": "TrioTim",
        "Modality": "MR",
        "NumberOfAverages": 1.0,
        "NumberOfPhaseEncodingSteps": 64,
        "PercentPhaseFieldOfView": 100.0,
        "PercentSampling": 100.0,
        "PerformedProcedureStepStartTime": "154413.656000",
        "PhotometricInterpretation": "MONOCHROME2",
        "PixelBandwidth": 1905.0,
        "PixelRepresentation": 0,
        "PixelSpacing": [
          4.0,
          4.0
        ],
        "PositionReferenceIndicator": "",
        "ProtocolName": "ep2d_bold_feedback_movie_2A",
        "RepetitionTime": 2500.0,
        "Rows": 384,
        "SAR": 0.14113791208406,
        "SamplesPerPixel": 1,
        "ScanOptions": "FS",
        "ScanningSequence": "EP",
        "SequenceName": "*epfid2d1_64",
        "SequenceVariant": "SK",
        "SeriesDescription": "ep2d_bold_feedback_movie_2A",
        "SeriesNumber": 8,
        "SeriesTime": "161125.937000",
        "SliceLocation": -20.708998102533,
        "SliceThickness": 4.0,
        "SmallestImagePixelValue": 0,
        "SoftwareVersions": "syngo MR B17",
        "SpacingBetweenSlices": 4.0000002158948,
        "SpecificCharacterSet": "ISO_IR 100",
        "StudyID": "1",
        "StudyTime": "154413.609000",
        "TransmitCoilName": "Body",
        "VariableFlipAngleFlag": "N",
        "WindowCenterWidthExplanation": "Algo1",
        "dBdt": 0.0
      },
      "slices": {}
    },
    "modality": "bold",
    "subject_id": "CTS223",
    "task_id": "restmoviefixed",
    "time": {
      "samples": {
        "AcquisitionNumber": [
          1,
          2,
          3,
          4,
          5,
          6,
          7,
          8,
          9,
          10,
          11,
          12,
          13,
          14,
          15,
          16,
          17,
          18,
          19,
          20,
          21,
          22,
          23,
          24,
          25,
          26,
          27,
          28,
          29,
          30,
          31,
          32,
          33,
          34,
          35,
          36,
          37,
          38,
          39,
          40,
          41,
          42,
          43,
          44,
          45,
          46,
          47,
          48,
          49,
          50,
          51,
          52,
          53,
          54,
          55,
          56,
          57,
          58,
          59,
          60,
          61,
          62,
          63,
          64,
          65,
          66,
          67,
          68,
          69,
          70,
          71,
          72,
          73,
          74,
          75,
          76,
          77,
          78,
          79,
          80,
          81,
          82,
          83,
          84,
          85,
          86,
          87,
          88,
          89,
          90,
          91,
          92,
          93,
          94,
          95,
          96,
          97,
          98,
          99,
          100,
          101,
          102,
          103,
          104,
          105,
          106,
          107,
          108,
          109,
          110,
          111,
          112,
          113,
          114,
          115,
          116,
          117,
          118,
          119,
          120,
          121,
          122,
          123,
          124,
          125,
          126,
          127,
          128,
          129,
          130,
          131,
          132,
          133,
          134,
          135,
          136,
          137,
          138,
          139,
          140,
          141,
          142,
          143,
          144,
          145,
          146,
          147,
          148,
          149,
          150,
          151,
          152,
          153,
          154,
          155,
          156,
          157,
          158,
          159,
          160,
          161,
          162,
          163,
          164
        ],
        "AcquisitionTime": [
          "161123.832500",
          "161126.342500",
          "161128.852500",
          "161131.362500",
          "161133.872500",
          "161136.382500",
          "161138.892500",
          "161141.402500",
          "161143.912500",
          "161146.422500",
          "161148.935000",
          "161151.445000",
          "161153.955000",
          "161156.465000",
          "161158.975000",
          "161201.485000",
          "161203.995000",
          "161206.505000",
          "161209.015000",
          "161211.525000",
          "161214.035000",
          "161216.545000",
          "161219.055000",
          "161221.565000",
          "161224.075000",
          "161226.585000",
          "161229.095000",
          "161231.605000",
          "161234.115000",
          "161236.625000",
          "161239.135000",
          "161241.645000",
          "161244.155000",
          "161246.665000",
          "161249.175000",
          "161251.685000",
          "161254.195000",
          "161256.705000",
          "161259.215000",
          "161301.725000",
          "161304.235000",
          "161306.745000",
          "161309.255000",
          "161311.765000",
          "161314.275000",
          "161316.785000",
          "161319.295000",
          "161321.805000",
          "161324.315000",
          "161326.825000",
          "161329.335000",
          "161331.845000",
          "161334.355000",
          "161336.865000",
          "161339.375000",
          "161341.885000",
          "161344.395000",
          "161346.905000",
          "161349.415000",
          "161351.925000",
          "161354.435000",
          "161356.945000",
          "161359.455000",
          "161401.965000",
          "161404.475000",
          "161406.985000",
          "161409.495000",
          "161412.005000",
          "161414.515000",
          "161417.025000",
          "161419.535000",
          "161422.045000",
          "161424.555000",
          "161427.067500",
          "161429.577500",
          "161432.087500",
          "161434.597500",
          "161437.107500",
          "161439.617500",
          "161442.127500",
          "161444.637500",
          "161447.147500",
          "161449.657500",
          "161452.167500",
          "161454.677500",
          "161457.187500",
          "161459.697500",
          "161502.207500",
          "161504.717500",
          "161507.227500",
          "161509.737500",
          "161512.247500",
          "161514.757500",
          "161517.267500",
          "161519.777500",
          "161522.287500",
          "161524.797500",
          "161527.307500",
          "161529.817500",
          "161532.327500",
          "161534.837500",
          "161537.347500",
          "161539.857500",
          "161542.367500",
          "161544.877500",
          "161547.387500",
          "161549.897500",
          "161552.407500",
          "161554.917500",
          "161557.427500",
          "161559.937500",
          "161602.447500",
          "161604.957500",
          "161607.467500",
          "161609.977500",
          "161612.487500",
          "161614.997500",
          "161617.507500",
          "161620.017500",
          "161622.527500",
          "161625.037500",
          "161627.547500",
          "161630.057500",
          "161632.567500",
          "161635.077500",
          "161637.587500",
          "161640.097500",
          "161642.607500",
          "161645.117500",
          "161647.627500",
          "161650.137500",
          "161652.647500",
          "161655.157500",
          "161657.667500",
          "161700.177500",
          "161702.690000",
          "161705.200000",
          "161707.710000",
          "161710.220000",
          "161712.730000",
          "161715.240000",
          "161717.750000",
          "161720.260000",
          "161722.770000",
          "161725.280000",
          "161727.790000",
          "161730.300000",
          "161732.810000",
          "161735.320000",
          "161737.830000",
          "161740.340000",
          "161742.850000",
          "161745.360000",
          "161747.870000",
          "161750.380000",
          "161752.890000",
          "161755.400000",
          "161757.910000",
          "161800.420000",
          "161802.930000",
          "161805.440000",
          "161807.950000",
          "161810.460000",
          "161812.970000"
        ],
        "ContentTime": [
          "161125.937000",
          "161128.437000",
          "161130.937000",
          "161133.437000",
          "161135.937000",
          "161138.437000",
          "161140.937000",
          "161143.437000",
          "161145.937000",
          "161148.437000",
          "161150.937000",
          "161153.437000",
          "161155.937000",
          "161158.437000",
          "161200.937000",
          "161203.437000",
          "161205.937000",
          "161208.437000",
          "161210.937000",
          "161213.437000",
          "161215.937000",
          "161218.437000",
          "161220.937000",
          "161223.437000",
          "161225.937000",
          "161228.437000",
          "161230.937000",
          "161233.437000",
          "161235.937000",
          "161238.437000",
          "161240.937000",
          "161243.437000",
          "161245.937000",
          "161248.437000",
          "161250.937000",
          "161253.437000",
          "161255.937000",
          "161258.437000",
          "161300.937000",
          "161303.437000",
          "161305.937000",
          "161308.437000",
          "161310.937000",
          "161313.437000",
          "161315.937000",
          "161318.437000",
          "161320.937000",
          "161323.437000",
          "161325.937000",
          "161328.437000",
          "161330.937000",
          "161333.437000",
          "161335.937000",
          "161338.437000",
          "161340.937000",
          "161343.437000",
          "161345.937000",
          "161348.437000",
          "161350.937000",
          "161353.437000",
          "161355.937000",
          "161358.437000",
          "161400.937000",
          "161403.437000",
          "161405.937000",
          "161408.437000",
          "161410.937000",
          "161413.437000",
          "161415.937000",
          "161418.437000",
          "161420.937000",
          "161423.437000",
          "161425.937000",
          "161428.437000",
          "161430.937000",
          "161433.437000",
          "161435.937000",
          "161438.437000",
          "161440.937000",
          "161443.437000",
          "161445.937000",
          "161448.437000",
          "161450.937000",
          "161453.437000",
          "161455.937000",
          "161458.437000",
          "161500.937000",
          "161503.437000",
          "161505.937000",
          "161508.437000",
          "161510.937000",
          "161513.437000",
          "161515.937000",
          "161518.437000",
          "161520.937000",
          "161523.437000",
          "161525.937000",
          "161528.453000",
          "161530.937000",
          "161533.437000",
          "161535.937000",
          "161538.437000",
          "161540.937000",
          "161543.437000",
          "161545.937000",
          "161548.437000",
          "161550.937000",
          "161553.437000",
          "161555.937000",
          "161558.437000",
          "161600.937000",
          "161603.437000",
          "161605.937000",
          "161608.437000",
          "161610.937000",
          "161613.437000",
          "161615.937000",
          "161618.437000",
          "161620.937000",
          "161623.437000",
          "161625.937000",
          "161628.437000",
          "161630.937000",
          "161633.437000",
          "161635.937000",
          "161638.437000",
          "161640.937000",
          "161643.437000",
          "161645.937000",
          "161648.437000",
          "161650.937000",
          "161653.437000",
          "161655.937000",
          "161658.437000",
          "161700.937000",
          "161703.437000",
          "161705.937000",
          "161708.437000",
          "161710.937000",
          "161713.437000",
          "161715.937000",
          "161718.437000",
          "161720.937000",
          "161723.437000",
          "161725.937000",
          "161728.437000",
          "161730.937000",
          "161733.437000",
          "161735.937000",
          "161738.437000",
          "161740.937000",
          "161743.437000",
          "161745.937000",
          "161748.437000",
          "161750.937000",
          "161753.437000",
          "161755.937000",
          "161758.437000",
          "161800.937000",
          "161803.437000",
          "161805.937000",
          "161808.437000",
          "161810.937000",
          "161813.375000"
        ],
        "InstanceCreationTime": [
          "161125.937000",
          "161128.437000",
          "161130.937000",
          "161133.437000",
          "161135.937000",
          "161138.437000",
          "161140.937000",
          "161143.437000",
          "161145.937000",
          "161148.437000",
          "161150.937000",
          "161153.437000",
          "161155.937000",
          "161158.437000",
          "161200.937000",
          "161203.437000",
          "161205.937000",
          "161208.437000",
          "161210.937000",
          "161213.437000",
          "161215.937000",
          "161218.437000",
          "161220.937000",
          "161223.437000",
          "161225.937000",
          "161228.437000",
          "161230.937000",
          "161233.437000",
          "161235.937000",
          "161238.437000",
          "161240.937000",
          "161243.437000",
          "161245.937000",
          "161248.437000",
          "161250.937000",
          "161253.437000",
          "161255.937000",
          "161258.437000",
          "161300.937000",
          "161303.437000",
          "161305.937000",
          "161308.437000",
          "161310.937000",
          "161313.437000",
          "161315.937000",
          "161318.437000",
          "161320.937000",
          "161323.437000",
          "161325.937000",
          "161328.437000",
          "161330.937000",
          "161333.437000",
          "161335.937000",
          "161338.437000",
          "161340.937000",
          "161343.437000",
          "161345.937000",
          "161348.437000",
          "161350.937000",
          "161353.437000",
          "161355.937000",
          "161358.437000",
          "161400.937000",
          "161403.437000",
          "161405.937000",
          "161408.437000",
          "161410.937000",
          "161413.437000",
          "161415.937000",
          "161418.437000",
          "161420.937000",
          "161423.437000",
          "161425.937000",
          "161428.437000",
          "161430.937000",
          "161433.437000",
          "161435.937000",
          "161438.437000",
          "161440.937000",
          "161443.437000",
          "161445.937000",
          "161448.437000",
          "161450.937000",
          "161453.437000",
          "161455.937000",
          "161458.437000",
          "161500.937000",
          "161503.437000",
          "161505.937000",
          "161508.437000",
          "161510.937000",
          "161513.437000",
          "161515.937000",
          "161518.437000",
          "161520.937000",
          "161523.437000",
          "161525.937000",
          "161528.453000",
          "161530.937000",
          "161533.437000",
          "161535.937000",
          "161538.437000",
          "161540.937000",
          "161543.437000",
          "161545.937000",
          "161548.437000",
          "161550.937000",
          "161553.437000",
          "161555.937000",
          "161558.437000",
          "161600.937000",
          "161603.437000",
          "161605.937000",
          "161608.437000",
          "161610.937000",
          "161613.437000",
          "161615.937000",
          "161618.437000",
          "161620.937000",
          "161623.437000",
          "161625.937000",
          "161628.437000",
          "161630.937000",
          "161633.437000",
          "161635.937000",
          "161638.437000",
          "161640.937000",
          "161643.437000",
          "161645.937000",
          "161648.437000",
          "161650.937000",
          "161653.437000",
          "161655.937000",
          "161658.437000",
          "161700.937000",
          "161703.437000",
          "161705.937000",
          "161708.437000",
          "161710.937000",
          "161713.437000",
          "161715.937000",
          "161718.437000",
          "161720.937000",
          "161723.437000",
          "161725.937000",
          "161728.437000",
          "161730.937000",
          "161733.437000",
          "161735.937000",
          "161738.437000",
          "161740.937000",
          "161743.437000",
          "161745.937000",
          "161748.437000",
          "161750.937000",
          "161753.437000",
          "161755.937000",
          "161758.437000",
          "161800.937000",
          "161803.437000",
          "161805.937000",
          "161808.437000",
          "161810.937000",
          "161813.375000"
        ],
        "InstanceNumber": [
          1,
          2,
          3,
          4,
          5,
          6,
          7,
          8,
          9,
          10,
          11,
          12,
          13,
          14,
          15,
          16,
          17,
          18,
          19,
          20,
          21,
          22,
          23,
          24,
          25,
          26,
          27,
          28,
          29,
          30,
          31,
          32,
          33,
          34,
          35,
          36,
          37,
          38,
          39,
          40,
          41,
          42,
          43,
          44,
          45,
          46,
          47,
          48,
          49,
          50,
          51,
          52,
          53,
          54,
          55,
          56,
          57,
          58,
          59,
          60,
          61,
          62,
          63,
          64,
          65,
          66,
          67,
          68,
          69,
          70,
          71,
          72,
          73,
          74,
          75,
          76,
          77,
          78,
          79,
          80,
          81,
          82,
          83,
          84,
          85,
          86,
          87,
          88,
          89,
          90,
          91,
          92,
          93,
          94,
          95,
          96,
          97,
          98,
          99,
          100,
          101,
          102,
          103,
          104,
          105,
          106,
          107,
          108,
          109,
          110,
          111,
          112,
          113,
          114,
          115,
          116,
          117,
          118,
          119,
          120,
          121,
          122,
          123,
          124,
          125,
          126,
          127,
          128,
          129,
          130,
          131,
          132,
          133,
          134,
          135,
          136,
          137,
          138,
          139,
          140,
          141,
          142,
          143,
          144,
          145,
          146,
          147,
          148,
          149,
          150,
          151,
          152,
          153,
          154,
          155,
          156,
          157,
          158,
          159,
          160,
          161,
          162,
          163,
          164
        ],
        "LargestImagePixelValue": [
          1880,
          2137,
          2085,
          1841,
          1579,
          1846,
          1640,
          1561,
          1942,
          1691,
          1696,
          2127,
          2080,
          1927,
          2145,
          2068,
          1760,
          1585,
          2077,
          1848,
          1736,
          1644,
          1981,
          1847,
          1860,
          2098,
          1881,
          1937,
          1632,
          1972,
          1774,
          1660,
          1668,
          1611,
          2051,
          2068,
          1902,
          1799,
          1831,
          1847,
          1842,
          2040,
          2063,
          2044,
          2022,
          1733,
          1754,
          1572,
          1689,
          1788,
          1994,
          2219,
          2104,
          2110,
          1785,
          1745,
          1535,
          1818,
          1753,
          1808,
          2127,
          2288,
          2128,
          1846,
          1836,
          1598,
          1739,
          1916,
          2070,
          2104,
          2041,
          1777,
          1592,
          1750,
          1864,
          1852,
          1965,
          2133,
          2202,
          2084,
          1964,
          1848,
          1877,
          1804,
          1883,
          1874,
          2108,
          1833,
          1812,
          1898,
          1774,
          1568,
          1939,
          2125,
          2273,
          2165,
          1846,
          1772,
          1817,
          1717,
          1944,
          1593,
          1680,
          1927,
          1687,
          1686,
          1804,
          1980,
          2259,
          2029,
          1764,
          2125,
          1978,
          1843,
          1570,
          1995,
          2059,
          1907,
          1894,
          1652,
          1895,
          2047,
          2027,
          1695,
          1659,
          1673,
          1956,
          1940,
          1598,
          1667,
          1548,
          2168,
          2081,
          1937,
          1778,
          1929,
          1807,
          1755,
          2054,
          2129,
          2074,
          1895,
          1805,
          1993,
          1705,
          1510,
          1651,
          1889,
          1760,
          1880,
          2117,
          2104,
          1934,
          1789,
          1798,
          1883,
          1736,
          1572,
          1765,
          1887,
          2063,
          1716,
          1568,
          1633
        ],
        "WindowCenter": [
          685.0,
          684.0,
          682.0,
          683.0,
          681.0,
          683.0,
          682.0,
          683.0,
          684.0,
          682.0,
          683.0,
          686.0,
          683.0,
          683.0,
          684.0,
          684.0,
          683.0,
          682.0,
          683.0,
          683.0,
          684.0,
          684.0,
          683.0,
          684.0,
          683.0,
          685.0,
          684.0,
          684.0,
          683.0,
          684.0,
          684.0,
          682.0,
          683.0,
          684.0,
          684.0,
          684.0,
          682.0,
          683.0,
          683.0,
          685.0,
          683.0,
          682.0,
          685.0,
          686.0,
          683.0,
          682.0,
          683.0,
          682.0,
          684.0,
          686.0,
          683.0,
          685.0,
          684.0,
          683.0,
          684.0,
          682.0,
          680.0,
          682.0,
          683.0,
          682.0,
          683.0,
          684.0,
          683.0,
          682.0,
          682.0,
          681.0,
          681.0,
          681.0,
          684.0,
          682.0,
          682.0,
          682.0,
          682.0,
          682.0,
          683.0,
          682.0,
          682.0,
          683.0,
          683.0,
          684.0,
          684.0,
          682.0,
          684.0,
          682.0,
          682.0,
          682.0,
          683.0,
          682.0,
          681.0,
          682.0,
          681.0,
          680.0,
          682.0,
          684.0,
          684.0,
          683.0,
          680.0,
          681.0,
          681.0,
          681.0,
          683.0,
          683.0,
          683.0,
          684.0,
          681.0,
          682.0,
          685.0,
          685.0,
          686.0,
          683.0,
          681.0,
          683.0,
          683.0,
          680.0,
          681.0,
          683.0,
          681.0,
          682.0,
          681.0,
          680.0,
          681.0,
          684.0,
          682.0,
          681.0,
          681.0,
          682.0,
          683.0,
          682.0,
          682.0,
          682.0,
          683.0,
          681.0,
          683.0,
          683.0,
          680.0,
          681.0,
          681.0,
          681.0,
          682.0,
          683.0,
          682.0,
          682.0,
          681.0,
          682.0,
          682.0,
          680.0,
          682.0,
          682.0,
