{
  "aor": 0.03592298780487805,
  "aqi": 0.025807379939024395,
  "bids_meta": {
    "AcquisitionMatrixPE": 64,
    "AcquisitionNumber": 1,
    "AcquisitionTime": "10:22:4.812500",
    "BandwidthPerPixelPhaseEncode": 26.483,
    "BaseResolution": 64,
    "BodyPartExamined": "HEAD",
    "CogAtlasID": "TODO",
    "ConversionSoftware": "dcm2niix",
    "ConversionSoftwareVersion": "v1.0.20171017 GCC6.3.0",
    "DerivedVendorReportedEchoSpacing": 0.000590001,
    "DeviceSerialNumber": "35177",
    "DwellTime": 4.1e-06,
    "EchoTime": 0.027,
    "EffectiveEchoSpacing": 0.000590001,
    "FlipAngle": 90,
    "ImageOrientationPatientDICOM": [
      0.994723,
      -0.089845,
      -0.0495352,
      0.0933284,
      0.992942,
      0.0731801
    ],
    "ImageType": [
      "ORIGINAL",
      "PRIMARY",
      "M",
      "ND",
      "NORM",
      "MOSAIC"
    ],
    "InPlanePhaseEncodingDirectionDICOM": "COL",
    "InstitutionAddress": "Scott_Ave._4525_St._Louis_MO_US_63110",
    "InstitutionName": "Washington_University",
    "InstitutionalDepartmentName": "Department",
    "MRAcquisitionType": "2D",
    "MagneticFieldStrength": 3,
    "Manufacturer": "Siemens",
    "ManufacturersModelName": "TrioTim",
    "Modality": "MR",
    "PartialFourier": 1,
    "PatientPosition": "HFS",
    "PercentPhaseFOV": 100,
    "PhaseEncodingDirection": "j-",
    "PhaseEncodingSteps": 64,
    "PhaseResolution": 1,
    "PixelBandwidth": 1905,
    "ProcedureStepDescription": "head_GREENE",
    "ProtocolName": "ep2d_bold_ad_rest",
    "PulseSequenceDetails": "%SiemensSeq%_ep2d_bold",
    "ReceiveCoilName": "HeadMatrix",
    "ReconMatrixPE": 64,
    "RepetitionTime": 2.5,
    "SAR": 0.134691,
    "ScanOptions": "FS",
    "ScanningSequence": "EP",
    "SequenceName": "_epfid2d1_64",
    "SequenceVariant": "SK",
    "SeriesDescription": "ep2d_bold_ad_rest",
    "SeriesNumber": 11,
    "ShimSetting": [
      -243,
      -19530,
      8058,
      363,
      207,
      -450,
      436,
      3
    ],
    "SliceThickness": 4,
    "SliceTiming": [
      1.255,
      0,
      1.3325,
      0.0775,
      1.4125,
      0.1575,
      1.49,
      0.235,
      1.5675,
      0.3125,
      1.6475,
      0.3925,
      1.725,
      0.47,
      1.8025,
      0.5475,
      1.8825,
      0.6275,
      1.96,
      0.705,
      2.0375,
      0.785,
      2.1175,
      0.8625,
      2.195,
      0.94,
      2.275,
      1.02,
      2.3525,
      1.0975,
      2.43,
      1.175
    ],
    "SoftwareVersions": "syngo_MR_B17",
    "SpacingBetweenSlices": 4,
    "StationName": "MRC35177",
    "TaskName": "restfixationadaptive",
    "TotalReadoutTime": 0.0371701,
    "TxRefAmp": 352.168,
    "dataset": "ds000256",
    "dcmmeta_affine": [
      [
        -3.9788925647735596,
        0.37331345677375793,
        -0.17044296860694885,
        124.96940612792969
      ],
      [
        0.35937994718551636,
        3.971769332885742,
        0.3096678555011749,
        -149.63262939453125
      ],
      [
        -0.19814081490039825,
        -0.29272031784057617,
        3.984351634979248,
        -20.953935623168945
      ],
      [
        0.0,
        0.0,
        0.0,
        1.0
      ]
    ],
    "dcmmeta_reorient_transform": [
      [
        0.0,
        -1.0,
        0.0,
        63.0
      ],
      [
        1.0,
        0.0,
        0.0,
        0.0
      ],
      [
        0.0,
        0.0,
        1.0,
        0.0
      ],
      [
        0.0,
        0.0,
        0.0,
        1.0
      ]
    ],
    "dcmmeta_shape": [
      64,
      64,
      32,
      164
    ],
    "dcmmeta_slice_dim": 2,
    "dcmmeta_version": 0.6,
    "global": {
      "const": {
        "AccessionNumber": ".",
        "AcquisitionMatrix": [
          64,
          0,
          0,
          64
        ],
        "AngioFlag": "N",
        "BitsAllocated": 16,
        "BitsStored": 12,
        "BodyPartExamined": "HEAD",
        "Columns": 384,
        "DeidentificationMethodCodeSequence": [
          {
            "CodeMeaning": "XNAT Edit Script",
            "CodeValue": "625500",
            "CodingSchemeDesignator": "XNAT",
            "CodingSchemeVersion": "0.1"
          }
        ],
        "EchoNumbers": 1,
        "EchoTime": 27.0,
        "EchoTrainLength": 1,
        "FlipAngle": 90.0,
        "HighBit": 11,
        "ImageOrientationPatient": [
          0.9947231483967,
          -0.0898449864318,
          -0.0495352042171,
          0.09332836121152,
          0.99294234130261,
          0.07318007817753
        ],
        "ImagePositionPatient": [
          -844.84111823989,
          -678.57115535872,
          -54.528033800957
        ],
        "ImageType": [
          "ORIGINAL",
          "PRIMARY",
          "M",
          "ND",
          "NORM",
          "MOSAIC"
        ],
        "ImagedNucleus": "1H",
        "ImagingFrequency": 123.255954,
        "InPlanePhaseEncodingDirection": "COL",
        "MRAcquisitionType": "2D",
        "MagneticFieldStrength": 3.0,
        "Manufacturer": "SIEMENS",
        "ManufacturerModelName": "TrioTim",
        "Modality": "MR",
        "NumberOfAverages": 1.0,
        "NumberOfPhaseEncodingSteps": 64,
        "PercentPhaseFieldOfView": 100.0,
        "PercentSampling": 100.0,
        "PerformedProcedureStepStartTime": "092346.593000",
        "PhotometricInterpretation": "MONOCHROME2",
        "PixelBandwidth": 1905.0,
        "PixelRepresentation": 0,
        "PixelSpacing": [
          4.0,
          4.0
        ],
        "PositionReferenceIndicator": "",
        "ProtocolName": "ep2d_bold_ad_rest",
        "RepetitionTime": 2500.0,
        "Rows": 384,
        "SAR": 0.13469106350211,
        "SamplesPerPixel": 1,
        "ScanOptions": "FS",
        "ScanningSequence": "EP",
        "SequenceName": "*epfid2d1_64",
        "SequenceVariant": "SK",
        "SeriesDescription": "ep2d_bold_ad_rest",
        "SeriesNumber": 11,
        "SeriesTime": "102206.984000",
        "SliceLocation": -37.781100060645,
        "SliceThickness": 4.0,
        "SmallestImagePixelValue": 0,
        "SoftwareVersions": "syngo MR B17",
        "SpacingBetweenSlices": 4.000000475514,
        "SpecificCharacterSet": "ISO_IR 100",
        "StudyID": "1",
        "StudyTime": "092346.546000",
        "TransmitCoilName": "Body",
        "VariableFlipAngleFlag": "N",
        "WindowCenterWidthExplanation": "Algo1",
        "dBdt": 0.0
      },
      "slices": {}
    },
    "modality": "bold",
    "subject_id": "CTS209",
    "task_id": "restfixationadaptive",
    "time": {
      "samples": {
        "AcquisitionNumber": [
          1,
          2,
          3,
          4,
          5,
          6,
          7,
          8,
          9,
          10,
          11,
          12,
          13,
          14,
          15,
          16,
          17,
          18,
          19,
          20,
          21,
          22,
          23,
          24,
          25,
          26,
          27,
          28,
          29,
          30,
          31,
          32,
          33,
          34,
          35,
          36,
          37,
          38,
          39,
          40,
          41,
          42,
          43,
          44,
          45,
          46,
          47,
          48,
          49,
          50,
          51,
          52,
          53,
          54,
          55,
          56,
          57,
          58,
          59,
          60,
          61,
          62,
          63,
          64,
          65,
          66,
          67,
          68,
          69,
          70,
          71,
          72,
          73,
          74,
          75,
          76,
          77,
          78,
          79,
          80,
          81,
          82,
          83,
          84,
          85,
          86,
          87,
          88,
          89,
          90,
          91,
          92,
          93,
          94,
          95,
          96,
          97,
          98,
          99,
          100,
          101,
          102,
          103,
          104,
          105,
          106,
          107,
          108,
          109,
          110,
          111,
          112,
          113,
          114,
          115,
          116,
          117,
          118,
          119,
          120,
          121,
          122,
          123,
          124,
          125,
          126,
          127,
          128,
          129,
          130,
          131,
          132,
          133,
          134,
          135,
          136,
          137,
          138,
          139,
          140,
          141,
          142,
          143,
          144,
          145,
          146,
          147,
          148,
          149,
          150,
          151,
          152,
          153,
          154,
          155,
          156,
          157,
          158,
          159,
          160,
          161,
          162,
          163,
          164
        ],
        "AcquisitionTime": [
          "102204.812500",
          "102207.322500",
          "102209.832500",
          "102212.342500",
          "102214.852500",
          "102217.362500",
          "102219.872500",
          "102222.382500",
          "102224.892500",
          "102227.402500",
          "102229.912500",
          "102232.422500",
          "102234.932500",
          "102237.442500",
          "102239.952500",
          "102242.462500",
          "102244.972500",
          "102247.482500",
          "102249.992500",
          "102252.502500",
          "102255.012500",
          "102257.522500",
          "102300.032500",
          "102302.542500",
          "102305.052500",
          "102307.562500",
          "102310.072500",
          "102312.582500",
          "102315.092500",
          "102317.602500",
          "102320.112500",
          "102322.622500",
          "102325.132500",
          "102327.642500",
          "102330.152500",
          "102332.662500",
          "102335.172500",
          "102337.682500",
          "102340.192500",
          "102342.702500",
          "102345.212500",
          "102347.722500",
          "102350.232500",
          "102352.742500",
          "102355.252500",
          "102357.762500",
          "102400.275000",
          "102402.785000",
          "102405.295000",
          "102407.805000",
          "102410.315000",
          "102412.825000",
          "102415.335000",
          "102417.845000",
          "102420.355000",
          "102422.865000",
          "102425.375000",
          "102427.885000",
          "102430.395000",
          "102432.905000",
          "102435.415000",
          "102437.925000",
          "102440.435000",
          "102442.945000",
          "102445.455000",
          "102447.965000",
          "102450.475000",
          "102452.985000",
          "102455.495000",
          "102458.005000",
          "102500.515000",
          "102503.025000",
          "102505.535000",
          "102508.045000",
          "102510.555000",
          "102513.065000",
          "102515.575000",
          "102518.085000",
          "102520.595000",
          "102523.105000",
          "102525.615000",
          "102528.125000",
          "102530.635000",
          "102533.145000",
          "102535.655000",
          "102538.165000",
          "102540.675000",
          "102543.185000",
          "102545.695000",
          "102548.205000",
          "102550.715000",
          "102553.225000",
          "102555.735000",
          "102558.245000",
          "102600.755000",
          "102603.265000",
          "102605.775000",
          "102608.285000",
          "102610.795000",
          "102613.305000",
          "102615.815000",
          "102618.325000",
          "102620.835000",
          "102623.345000",
          "102625.855000",
          "102628.365000",
          "102630.875000",
          "102633.385000",
          "102635.897500",
          "102638.407500",
          "102640.917500",
          "102643.427500",
          "102645.937500",
          "102648.447500",
          "102650.957500",
          "102653.467500",
          "102655.977500",
          "102658.487500",
          "102700.997500",
          "102703.507500",
          "102706.017500",
          "102708.527500",
          "102711.037500",
          "102713.547500",
          "102716.057500",
          "102718.567500",
          "102721.077500",
          "102723.587500",
          "102726.097500",
          "102728.607500",
          "102731.117500",
          "102733.627500",
          "102736.137500",
          "102738.647500",
          "102741.157500",
          "102743.667500",
          "102746.177500",
          "102748.687500",
          "102751.197500",
          "102753.707500",
          "102756.217500",
          "102758.727500",
          "102801.237500",
          "102803.747500",
          "102806.257500",
          "102808.767500",
          "102811.277500",
          "102813.787500",
          "102816.297500",
          "102818.807500",
          "102821.317500",
          "102823.827500",
          "102826.337500",
          "102828.847500",
          "102831.357500",
          "102833.867500",
          "102836.377500",
          "102838.887500",
          "102841.397500",
          "102843.907500",
          "102846.417500",
          "102848.927500",
          "102851.437500",
          "102853.947500"
        ],
        "ContentTime": [
          "102206.984000",
          "102209.468000",
          "102211.968000",
          "102214.468000",
          "102216.968000",
          "102219.468000",
          "102221.968000",
          "102224.468000",
          "102226.968000",
          "102229.468000",
          "102231.968000",
          "102234.468000",
          "102236.968000",
          "102239.468000",
          "102241.968000",
          "102244.468000",
          "102246.968000",
          "102249.468000",
          "102251.968000",
          "102254.468000",
          "102256.968000",
          "102259.468000",
          "102301.968000",
          "102304.468000",
          "102306.968000",
          "102309.468000",
          "102311.968000",
          "102314.468000",
          "102316.968000",
          "102319.468000",
          "102321.968000",
          "102324.468000",
          "102326.968000",
          "102329.468000",
          "102331.968000",
          "102334.468000",
          "102336.968000",
          "102339.468000",
          "102341.968000",
          "102344.468000",
          "102346.968000",
          "102349.468000",
          "102351.968000",
          "102354.468000",
          "102356.968000",
          "102359.468000",
          "102401.968000",
          "102404.468000",
          "102406.984000",
          "102409.468000",
          "102411.968000",
          "102414.468000",
          "102416.968000",
          "102419.468000",
          "102421.968000",
          "102424.468000",
          "102426.968000",
          "102429.468000",
          "102431.968000",
          "102434.468000",
          "102436.968000",
          "102439.468000",
          "102441.968000",
          "102444.468000",
          "102446.968000",
          "102449.468000",
          "102451.968000",
          "102454.468000",
          "102456.968000",
          "102459.468000",
          "102501.968000",
          "102504.468000",
          "102506.968000",
          "102509.468000",
          "102511.968000",
          "102514.468000",
          "102516.968000",
          "102519.468000",
          "102521.968000",
          "102524.468000",
          "102526.968000",
          "102529.468000",
          "102531.968000",
          "102534.468000",
          "102536.968000",
          "102539.468000",
          "102541.968000",
          "102544.468000",
          "102546.968000",
          "102549.468000",
          "102551.968000",
          "102554.468000",
          "102556.968000",
          "102559.468000",
          "102601.968000",
          "102604.468000",
          "102606.968000",
          "102609.468000",
          "102611.968000",
          "102614.468000",
          "102616.968000",
          "102619.468000",
          "102621.968000",
          "102624.468000",
          "102626.968000",
          "102629.468000",
          "102631.968000",
          "102634.468000",
          "102636.968000",
          "102639.468000",
          "102641.968000",
          "102644.468000",
          "102646.968000",
          "102649.468000",
          "102651.968000",
          "102654.468000",
          "102656.968000",
          "102659.468000",
          "102701.968000",
          "102704.468000",
          "102706.968000",
          "102709.468000",
          "102711.968000",
          "102714.468000",
          "102716.968000",
          "102719.468000",
          "102721.968000",
          "102724.468000",
          "102726.968000",
          "102729.468000",
          "102731.968000",
          "102734.468000",
          "102736.968000",
          "102739.468000",
          "102741.968000",
          "102744.468000",
          "102746.968000",
          "102749.468000",
          "102751.968000",
          "102754.468000",
          "102756.968000",
          "102759.468000",
          "102801.968000",
          "102804.468000",
          "102806.968000",
          "102809.468000",
          "102811.968000",
          "102814.468000",
          "102816.968000",
          "102819.468000",
          "102821.968000",
          "102824.468000",
          "102826.968000",
          "102829.468000",
          "102831.968000",
          "102834.468000",
          "102836.968000",
          "102839.468000",
          "102841.968000",
          "102844.468000",
          "102846.968000",
          "102849.468000",
          "102851.968000",
          "102854.406000"
        ],
        "InstanceCreationTime": [
          "102206.984000",
          "102209.468000",
          "102211.968000",
          "102214.468000",
          "102216.968000",
          "102219.468000",
          "102221.968000",
          "102224.468000",
          "102226.968000",
          "102229.468000",
          "102231.968000",
          "102234.468000",
          "102236.968000",
          "102239.468000",
          "102241.968000",
          "102244.468000",
          "102246.968000",
          "102249.468000",
          "102251.968000",
          "102254.468000",
          "102256.968000",
          "102259.468000",
          "102301.968000",
          "102304.468000",
          "102306.968000",
          "102309.468000",
          "102311.968000",
          "102314.468000",
          "102316.968000",
          "102319.468000",
          "102321.968000",
          "102324.468000",
          "102326.968000",
          "102329.468000",
          "102331.968000",
          "102334.468000",
          "102336.968000",
          "102339.468000",
          "102341.968000",
          "102344.468000",
          "102346.968000",
          "102349.468000",
          "102351.968000",
          "102354.468000",
          "102356.968000",
          "102359.468000",
          "102401.968000",
          "102404.468000",
          "102406.984000",
          "102409.468000",
          "102411.968000",
          "102414.468000",
          "102416.968000",
          "102419.468000",
          "102421.968000",
          "102424.468000",
          "102426.968000",
          "102429.468000",
          "102431.968000",
          "102434.468000",
          "102436.968000",
          "102439.468000",
          "102441.968000",
          "102444.468000",
          "102446.968000",
          "102449.468000",
          "102451.968000",
          "102454.468000",
          "102456.968000",
          "102459.468000",
          "102501.968000",
          "102504.468000",
          "102506.968000",
          "102509.468000",
          "102511.968000",
          "102514.468000",
          "102516.968000",
          "102519.468000",
          "102521.968000",
          "102524.468000",
          "102526.968000",
          "102529.468000",
          "102531.968000",
          "102534.468000",
          "102536.968000",
          "102539.468000",
          "102541.968000",
          "102544.468000",
          "102546.968000",
          "102549.468000",
          "102551.968000",
          "102554.468000",
          "102556.968000",
          "102559.468000",
          "102601.968000",
          "102604.468000",
          "102606.968000",
          "102609.468000",
          "102611.968000",
          "102614.468000",
          "102616.968000",
          "102619.468000",
          "102621.968000",
          "102624.468000",
          "102626.968000",
          "102629.468000",
          "102631.968000",
          "102634.468000",
          "102636.968000",
          "102639.468000",
          "102641.968000",
          "102644.468000",
          "102646.968000",
          "102649.468000",
          "102651.968000",
          "102654.468000",
          "102656.968000",
          "102659.468000",
          "102701.968000",
          "102704.468000",
          "102706.968000",
          "102709.468000",
          "102711.968000",
          "102714.468000",
          "102716.968000",
          "102719.468000",
          "102721.968000",
          "102724.468000",
          "102726.968000",
          "102729.468000",
          "102731.968000",
          "102734.468000",
          "102736.968000",
          "102739.468000",
          "102741.968000",
          "102744.468000",
          "102746.968000",
          "102749.468000",
          "102751.968000",
          "102754.468000",
          "102756.968000",
          "102759.468000",
          "102801.968000",
          "102804.468000",
          "102806.968000",
          "102809.468000",
          "102811.968000",
          "102814.468000",
          "102816.968000",
          "102819.468000",
          "102821.968000",
          "102824.468000",
          "102826.968000",
          "102829.468000",
          "102831.968000",
          "102834.468000",
          "102836.968000",
          "102839.468000",
          "102841.968000",
          "102844.468000",
          "102846.968000",
          "102849.468000",
          "102851.968000",
          "102854.406000"
        ],
        "InstanceNumber": [
          1,
          2,
          3,
          4,
          5,
          6,
          7,
          8,
          9,
          10,
          11,
          12,
          13,
          14,
          15,
          16,
          17,
          18,
          19,
          20,
          21,
          22,
          23,
          24,
          25,
          26,
          27,
          28,
          29,
          30,
          31,
          32,
          33,
          34,
          35,
          36,
          37,
          38,
          39,
          40,
          41,
          42,
          43,
          44,
          45,
          46,
          47,
          48,
          49,
          50,
          51,
          52,
          53,
          54,
          55,
          56,
          57,
          58,
          59,
          60,
          61,
          62,
          63,
          64,
          65,
          66,
          67,
          68,
          69,
          70,
          71,
          72,
          73,
          74,
          75,
          76,
          77,
          78,
          79,
          80,
          81,
          82,
          83,
          84,
          85,
          86,
          87,
          88,
          89,
          90,
          91,
          92,
          93,
          94,
          95,
          96,
          97,
          98,
          99,
          100,
          101,
          102,
          103,
          104,
          105,
          106,
          107,
          108,
          109,
          110,
          111,
          112,
          113,
          114,
          115,
          116,
          117,
          118,
          119,
          120,
          121,
          122,
          123,
          124,
          125,
          126,
          127,
          128,
          129,
          130,
          131,
          132,
          133,
          134,
          135,
          136,
          137,
          138,
          139,
          140,
          141,
          142,
          143,
          144,
          145,
          146,
          147,
          148,
          149,
          150,
          151,
          152,
          153,
          154,
          155,
          156,
          157,
          158,
          159,
          160,
          161,
          162,
          163,
          164
        ],
        "LargestImagePixelValue": [
          1792,
          1953,
          1974,
          2007,
          2044,
          2059,
          2239,
          2210,
          2175,
          2148,
          2121,
          2122,
          2142,
          1960,
          2226,
          1692,
          1577,
          1973,
          1813,
          1991,
          1593,
          2247,
          1701,
          1598,
          2244,
          1784,
          1804,
          1933,
          2083,
          2052,
          2243,
          2103,
          1965,
          1931,
          1587,
          1567,
          2058,
          1778,
          1688,
          1755,
          2131,
          1845,
          1893,
          1506,
          1681,
          2000,
          2084,
          1913,
          1728,
          1878,
          1847,
          2039,
          2075,
          1975,
          1976,
          2113,
          1678,
          2092,
          1674,
          1692,
          2045,
          1846,
          1747,
          1800,
          2030,
          1821,
          1973,
          1551,
          1903,
          2019,
          1952,
          1823,
          2202,
          1750,
          1920,
          1907,
          1607,
          1502,
          1828,
          1836,
          1946,
          1892,
          1814,
          1818,
          1763,
          1757,
          1924,
          1939,
          2136,
          1950,
          1905,
          1875,
          1788,
          1697,
          1717,
          1917,
          2110,
          2135,
          1858,
          2061,
          1809,
          1820,
          1756,
          1757,
          1965,
          2095,
          2026,
          1990,
          1943,
          1703,
          1791,
          1741,
          1891,
          1970,
          1967,
          2056,
          1999,
          1995,
          1974,
          1922,
          1528,
          1996,
          2046,
          1754,
          1929,
          2297,
          2416,
          1918,
          2081,
          1745,
          1731,
          1664,
          1748,
          1824,
          1718,
          1729,
          1687,
          2030,
          2058,
          1957,
          1859,
          1864,
          1562,
          1733,
          2079,
          2189,
          1917,
          1608,
          1912,
          1929,
          1707,
          1788,
          1835,
          1844,
          1932,
          1793,
          1765,
          1706,
          1994,
          1693,
          1684,
          1665,
          1758,
          2087
        ],
        "WindowCenter": [
          687.0,
          687.0,
          686.0,
          687.0,
          687.0,
          687.0,
          687.0,
          687.0,
          687.0,
          686.0,
          686.0,
          685.0,
          685.0,
          686.0,
          685.0,
          684.0,
          670.0,
          685.0,
          685.0,
          686.0,
          686.0,
          685.0,
          684.0,
          686.0,
          686.0,
          685.0,
          685.0,
          687.0,
          684.0,
          686.0,
          686.0,
          684.0,
          686.0,
          683.0,
          683.0,
          685.0,
          687.0,
          683.0,
          683.0,
          685.0,
          685.0,
          687.0,
          685.0,
          681.0,
          685.0,
          685.0,
          686.0,
          686.0,
          687.0,
          685.0,
          686.0,
          687.0,
          685.0,
          683.0,
          683.0,
          684.0,
          684.0,
          684.0,
          685.0,
          683.0,
          685.0,
          685.0,
          685.0,
          687.0,
          686.0,
          684.0,
          685.0,
          685.0,
          688.0,
          686.0,
          685.0,
          686.0,
          687.0,
          683.0,
          683.0,
          683.0,
          684.0,
          685.0,
          685.0,
          686.0,
          686.0,
          686.0,
          685.0,
          685.0,
          685.0,
          687.0,
          686.0,
          686.0,
          685.0,
          685.0,
          686.0,
          684.0,
          685.0,
          684.0,
          686.0,
          685.0,
          687.0,
          687.0,
          685.0,
          684.0,
          686.0,
          686.0,
          686.0,
          686.0,
          687.0,
          686.0,
          687.0,
          685.0,
          686.0,
          684.0,
          683.0,
          686.0,
          687.0,
          686.0,
          686.0,
          686.0,
          683.0,
          687.0,
          688.0,
          686.0,
          661.0,
          674.0,
          646.0,
          694.0,
          684.0,
          682.0,
          681.0,
          678.0,
          681.0,
          682.0,
          683.0,
          682.0,
          684.0,
          684.0,
          685.0,
          685.0,
          684.0,
          687.0,
          684.0,
          685.0,
          685.0,
          684.0,
          684.0,
          686.0,
          686.0,
          687.0,
          684.0,
          684.0,
          686.0,
