{
  "aor": 0.02395993902439024,
  "aqi": 0.008160683597560975,
  "bids_meta": {
    "AcquisitionMatrixPE": 64,
    "AcquisitionNumber": 1,
    "AcquisitionTime": "14:27:5.395000",
    "BandwidthPerPixelPhaseEncode": 26.483,
    "BaseResolution": 64,
    "BodyPartExamined": "HEAD",
    "CogAtlasID": "TODO",
    "ConversionSoftware": "dcm2niix",
    "ConversionSoftwareVersion": "v1.0.20171017 GCC6.3.0",
    "DerivedVendorReportedEchoSpacing": 0.000590001,
    "DeviceSerialNumber": "35177",
    "DwellTime": 4.1e-06,
    "EchoTime": 0.027,
    "EffectiveEchoSpacing": 0.000590001,
    "FlipAngle": 90,
    "ImageOrientationPatientDICOM": [
      0.999416,
      -0.0341636,
      0.0010837,
      0.0317575,
      0.939817,
      0.340198
    ],
    "ImageType": [
      "ORIGINAL",
      "PRIMARY",
      "M",
      "ND",
      "NORM",
      "MOSAIC"
    ],
    "InPlanePhaseEncodingDirectionDICOM": "COL",
    "InstitutionAddress": "Scott_Ave._4525_St._Louis_MO_US_63110",
    "InstitutionName": "Washington_University",
    "InstitutionalDepartmentName": "Department",
    "MRAcquisitionType": "2D",
    "MagneticFieldStrength": 3,
    "Manufacturer": "Siemens",
    "ManufacturersModelName": "TrioTim",
    "Modality": "MR",
    "PartialFourier": 1,
    "PatientPosition": "HFS",
    "PercentPhaseFOV": 100,
    "PhaseEncodingDirection": "j-",
    "PhaseEncodingSteps": 64,
    "PhaseResolution": 1,
    "PixelBandwidth": 1905,
    "ProcedureStepDescription": "head_GREENE",
    "ProtocolName": "ep2d_bold_nonad_rest",
    "PulseSequenceDetails": "%SiemensSeq%_ep2d_bold",
    "ReceiveCoilName": "HeadMatrix",
    "ReconMatrixPE": 64,
    "RepetitionTime": 2.5,
    "SAR": 0.139451,
    "ScanOptions": "FS",
    "ScanningSequence": "EP",
    "SequenceName": "_epfid2d1_64",
    "SequenceVariant": "SK",
    "SeriesDescription": "ep2d_bold_nonad_rest",
    "SeriesNumber": 8,
    "ShimSetting": [
      -231,
      -19678,
      7947,
      183,
      42,
      -480,
      420,
      123
    ],
    "SliceThickness": 4,
    "SliceTiming": [
      1.255,
      0,
      1.3325,
      0.0775,
      1.4125,
      0.1575,
      1.49,
      0.235,
      1.5675,
      0.3125,
      1.6475,
      0.3925,
      1.725,
      0.47,
      1.805,
      0.55,
      1.8825,
      0.6275,
      1.96,
      0.705,
      2.04,
      0.785,
      2.1175,
      0.8625,
      2.195,
      0.94,
      2.275,
      1.02,
      2.3525,
      1.0975,
      2.43,
      1.1775
    ],
    "SoftwareVersions": "syngo_MR_B17",
    "SpacingBetweenSlices": 4,
    "StationName": "MRC35177",
    "TaskName": "restfixationfixed",
    "TotalReadoutTime": 0.0371701,
    "TxRefAmp": 349.43,
    "dataset": "ds000256",
    "dcmmeta_affine": [
      [
        -3.9976625442504883,
        0.12702980637550354,
        0.05056348815560341,
        130.59381103515625
      ],
      [
        0.13665448129177094,
        3.759269952774048,
        1.3598582744598389,
        -142.88766479492188
      ],
      [
        0.004334815312176943,
        -1.3607913255691528,
        3.7614126205444336,
        27.599658966064453
      ],
      [
        0.0,
        0.0,
        0.0,
        1.0
      ]
    ],
    "dcmmeta_reorient_transform": [
      [
        0.0,
        -1.0,
        0.0,
        63.0
      ],
      [
        1.0,
        0.0,
        0.0,
        0.0
      ],
      [
        0.0,
        0.0,
        1.0,
        0.0
      ],
      [
        0.0,
        0.0,
        0.0,
        1.0
      ]
    ],
    "dcmmeta_shape": [
      64,
      64,
      32,
      164
    ],
    "dcmmeta_slice_dim": 2,
    "dcmmeta_version": 0.6,
    "global": {
      "const": {
        "AccessionNumber": ".",
        "AcquisitionMatrix": [
          64,
          0,
          0,
          64
        ],
        "AngioFlag": "N",
        "BitsAllocated": 16,
        "BitsStored": 12,
        "BodyPartExamined": "HEAD",
        "Columns": 384,
        "DeidentificationMethodCodeSequence": [
          {
            "CodeMeaning": "XNAT Edit Script",
            "CodeValue": "625500",
            "CodingSchemeDesignator": "XNAT",
            "CodingSchemeVersion": "0.1"
          }
        ],
        "EchoNumbers": 1,
        "EchoTime": 27.0,
        "EchoTrainLength": 1,
        "FlipAngle": 90.0,
        "HighBit": 11,
        "ImageOrientationPatient": [
          0.99941566554651,
          -0.0341636216802,
          0.00108370380149,
          0.03175745220294,
          0.93981748225772,
          0.34019783108117
        ],
        "ImagePositionPatient": [
          -798.54747985272,
          -673.56481659592,
          -276.55037624532
        ],
        "ImageType": [
          "ORIGINAL",
          "PRIMARY",
          "M",
          "ND",
          "NORM",
          "MOSAIC"
        ],
        "ImagedNucleus": "1H",
        "ImagingFrequency": 123.255889,
        "InPlanePhaseEncodingDirection": "COL",
        "MRAcquisitionType": "2D",
        "MagneticFieldStrength": 3.0,
        "Manufacturer": "SIEMENS",
        "ManufacturerModelName": "TrioTim",
        "Modality": "MR",
        "NumberOfAverages": 1.0,
        "NumberOfPhaseEncodingSteps": 64,
        "PercentPhaseFieldOfView": 100.0,
        "PercentSampling": 100.0,
        "PerformedProcedureStepStartTime": "135658.187000",
        "PhotometricInterpretation": "MONOCHROME2",
        "PixelBandwidth": 1905.0,
        "PixelRepresentation": 0,
        "PixelSpacing": [
          4.0,
          4.0
        ],
        "PositionReferenceIndicator": "",
        "ProtocolName": "ep2d_bold_nonad_rest",
        "RepetitionTime": 2500.0,
        "Rows": 384,
        "SAR": 0.13945054244287,
        "SamplesPerPixel": 1,
        "ScanOptions": "FS",
        "ScanningSequence": "EP",
        "SequenceName": "*epfid2d1_64",
        "SequenceVariant": "SK",
        "SeriesDescription": "ep2d_bold_nonad_rest",
        "SeriesNumber": 8,
        "SeriesTime": "142707.218000",
        "SliceLocation": -20.972500069845,
        "SliceThickness": 4.0,
        "SmallestImagePixelValue": 0,
        "SoftwareVersions": "syngo MR B17",
        "SpacingBetweenSlices": 3.999999431967,
        "SpecificCharacterSet": "ISO_IR 100",
        "StudyID": "1",
        "StudyTime": "135658.140000",
        "TransmitCoilName": "Body",
        "VariableFlipAngleFlag": "N",
        "WindowCenterWidthExplanation": "Algo1",
        "dBdt": 0.0
      },
      "slices": {}
    },
    "modality": "bold",
    "subject_id": "CTS211",
    "task_id": "restfixationfixed",
    "time": {
      "samples": {
        "AcquisitionNumber": [
          1,
          2,
          3,
          4,
          5,
          6,
          7,
          8,
          9,
          10,
          11,
          12,
          13,
          14,
          15,
          16,
          17,
          18,
          19,
          20,
          21,
          22,
          23,
          24,
          25,
          26,
          27,
          28,
          29,
          30,
          31,
          32,
          33,
          34,
          35,
          36,
          37,
          38,
          39,
          40,
          41,
          42,
          43,
          44,
          45,
          46,
          47,
          48,
          49,
          50,
          51,
          52,
          53,
          54,
          55,
          56,
          57,
          58,
          59,
          60,
          61,
          62,
          63,
          64,
          65,
          66,
          67,
          68,
          69,
          70,
          71,
          72,
          73,
          74,
          75,
          76,
          77,
          78,
          79,
          80,
          81,
          82,
          83,
          84,
          85,
          86,
          87,
          88,
          89,
          90,
          91,
          92,
          93,
          94,
          95,
          96,
          97,
          98,
          99,
          100,
          101,
          102,
          103,
          104,
          105,
          106,
          107,
          108,
          109,
          110,
          111,
          112,
          113,
          114,
          115,
          116,
          117,
          118,
          119,
          120,
          121,
          122,
          123,
          124,
          125,
          126,
          127,
          128,
          129,
          130,
          131,
          132,
          133,
          134,
          135,
          136,
          137,
          138,
          139,
          140,
          141,
          142,
          143,
          144,
          145,
          146,
          147,
          148,
          149,
          150,
          151,
          152,
          153,
          154,
          155,
          156,
          157,
          158,
          159,
          160,
          161,
          162,
          163,
          164
        ],
        "AcquisitionTime": [
          "142705.395000",
          "142707.905000",
          "142710.415000",
          "142712.925000",
          "142715.435000",
          "142717.945000",
          "142720.455000",
          "142722.965000",
          "142725.475000",
          "142727.985000",
          "142730.495000",
          "142733.005000",
          "142735.515000",
          "142738.025000",
          "142740.535000",
          "142743.045000",
          "142745.555000",
          "142748.065000",
          "142750.575000",
          "142753.085000",
          "142755.595000",
          "142758.105000",
          "142800.615000",
          "142803.125000",
          "142805.635000",
          "142808.145000",
          "142810.655000",
          "142813.165000",
          "142815.675000",
          "142818.185000",
          "142820.695000",
          "142823.205000",
          "142825.715000",
          "142828.225000",
          "142830.735000",
          "142833.245000",
          "142835.757500",
          "142838.267500",
          "142840.777500",
          "142843.287500",
          "142845.797500",
          "142848.307500",
          "142850.817500",
          "142853.327500",
          "142855.837500",
          "142858.347500",
          "142900.857500",
          "142903.367500",
          "142905.877500",
          "142908.387500",
          "142910.897500",
          "142913.407500",
          "142915.917500",
          "142918.427500",
          "142920.937500",
          "142923.447500",
          "142925.957500",
          "142928.467500",
          "142930.977500",
          "142933.487500",
          "142935.997500",
          "142938.507500",
          "142941.017500",
          "142943.527500",
          "142946.037500",
          "142948.547500",
          "142951.057500",
          "142953.567500",
          "142956.077500",
          "142958.587500",
          "143001.097500",
          "143003.607500",
          "143006.117500",
          "143008.627500",
          "143011.137500",
          "143013.647500",
          "143016.157500",
          "143018.667500",
          "143021.177500",
          "143023.687500",
          "143026.197500",
          "143028.707500",
          "143031.217500",
          "143033.727500",
          "143036.237500",
          "143038.747500",
          "143041.257500",
          "143043.767500",
          "143046.277500",
          "143048.787500",
          "143051.297500",
          "143053.807500",
          "143056.317500",
          "143058.827500",
          "143101.337500",
          "143103.847500",
          "143106.357500",
          "143108.867500",
          "143111.380000",
          "143113.890000",
          "143116.400000",
          "143118.910000",
          "143121.420000",
          "143123.930000",
          "143126.440000",
          "143128.950000",
          "143131.460000",
          "143133.970000",
          "143136.480000",
          "143138.990000",
          "143141.500000",
          "143144.010000",
          "143146.520000",
          "143149.030000",
          "143151.540000",
          "143154.050000",
          "143156.560000",
          "143159.070000",
          "143201.580000",
          "143204.090000",
          "143206.600000",
          "143209.110000",
          "143211.620000",
          "143214.130000",
          "143216.640000",
          "143219.150000",
          "143221.660000",
          "143224.170000",
          "143226.680000",
          "143229.190000",
          "143231.700000",
          "143234.210000",
          "143236.720000",
          "143239.230000",
          "143241.740000",
          "143244.250000",
          "143246.760000",
          "143249.270000",
          "143251.780000",
          "143254.290000",
          "143256.800000",
          "143259.310000",
          "143301.820000",
          "143304.330000",
          "143306.840000",
          "143309.350000",
          "143311.860000",
          "143314.370000",
          "143316.880000",
          "143319.390000",
          "143321.900000",
          "143324.410000",
          "143326.920000",
          "143329.430000",
          "143331.940000",
          "143334.450000",
          "143336.960000",
          "143339.470000",
          "143341.980000",
          "143344.490000",
          "143347.000000",
          "143349.512500",
          "143352.022500",
          "143354.532500"
        ],
        "ContentTime": [
          "142707.234000",
          "142709.718000",
          "142712.218000",
          "142714.718000",
          "142717.218000",
          "142719.718000",
          "142722.218000",
          "142724.718000",
          "142727.218000",
          "142729.718000",
          "142732.218000",
          "142734.718000",
          "142737.218000",
          "142739.718000",
          "142742.218000",
          "142744.718000",
          "142747.218000",
          "142749.718000",
          "142752.218000",
          "142754.718000",
          "142757.218000",
          "142759.718000",
          "142802.218000",
          "142804.718000",
          "142807.218000",
          "142809.718000",
          "142812.218000",
          "142814.718000",
          "142817.218000",
          "142819.718000",
          "142822.218000",
          "142824.718000",
          "142827.218000",
          "142829.718000",
          "142832.218000",
          "142834.718000",
          "142837.218000",
          "142839.718000",
          "142842.218000",
          "142844.718000",
          "142847.218000",
          "142849.718000",
          "142852.218000",
          "142854.718000",
          "142857.218000",
          "142859.718000",
          "142902.218000",
          "142904.718000",
          "142907.218000",
          "142909.718000",
          "142912.218000",
          "142914.718000",
          "142917.218000",
          "142919.718000",
          "142922.218000",
          "142924.718000",
          "142927.218000",
          "142929.718000",
          "142932.218000",
          "142934.718000",
          "142937.218000",
          "142939.718000",
          "142942.218000",
          "142944.718000",
          "142947.218000",
          "142949.718000",
          "142952.218000",
          "142954.718000",
          "142957.218000",
          "142959.718000",
          "143002.218000",
          "143004.718000",
          "143007.218000",
          "143009.718000",
          "143012.218000",
          "143014.718000",
          "143017.218000",
          "143019.718000",
          "143022.218000",
          "143024.718000",
          "143027.218000",
          "143029.718000",
          "143032.218000",
          "143034.718000",
          "143037.218000",
          "143039.718000",
          "143042.218000",
          "143044.718000",
          "143047.218000",
          "143049.718000",
          "143052.218000",
          "143054.718000",
          "143057.218000",
          "143059.718000",
          "143102.218000",
          "143104.718000",
          "143107.218000",
          "143109.718000",
          "143112.218000",
          "143114.718000",
          "143117.218000",
          "143119.718000",
          "143122.218000",
          "143124.718000",
          "143127.218000",
          "143129.718000",
          "143132.218000",
          "143134.718000",
          "143137.218000",
          "143139.718000",
          "143142.218000",
          "143144.718000",
          "143147.218000",
          "143149.718000",
          "143152.218000",
          "143154.718000",
          "143157.218000",
          "143159.718000",
          "143202.218000",
          "143204.718000",
          "143207.218000",
          "143209.718000",
          "143212.218000",
          "143214.718000",
          "143217.218000",
          "143219.718000",
          "143222.218000",
          "143224.718000",
          "143227.218000",
          "143229.718000",
          "143232.218000",
          "143234.718000",
          "143237.218000",
          "143239.718000",
          "143242.218000",
          "143244.718000",
          "143247.218000",
          "143249.718000",
          "143252.218000",
          "143254.718000",
          "143257.218000",
          "143259.718000",
          "143302.218000",
          "143304.718000",
          "143307.218000",
          "143309.718000",
          "143312.218000",
          "143314.718000",
          "143317.218000",
          "143319.718000",
          "143322.218000",
          "143324.718000",
          "143327.218000",
          "143329.718000",
          "143332.218000",
          "143334.718000",
          "143337.218000",
          "143339.718000",
          "143342.218000",
          "143344.718000",
          "143347.218000",
          "143349.718000",
          "143352.218000",
          "143354.656000"
        ],
        "InstanceCreationTime": [
          "142707.234000",
          "142709.718000",
          "142712.218000",
          "142714.718000",
          "142717.218000",
          "142719.718000",
          "142722.218000",
          "142724.718000",
          "142727.218000",
          "142729.718000",
          "142732.218000",
          "142734.718000",
          "142737.218000",
          "142739.718000",
          "142742.218000",
          "142744.718000",
          "142747.218000",
          "142749.718000",
          "142752.218000",
          "142754.718000",
          "142757.218000",
          "142759.718000",
          "142802.218000",
          "142804.718000",
          "142807.218000",
          "142809.718000",
          "142812.218000",
          "142814.718000",
          "142817.218000",
          "142819.718000",
          "142822.218000",
          "142824.718000",
          "142827.218000",
          "142829.718000",
          "142832.218000",
          "142834.718000",
          "142837.218000",
          "142839.718000",
          "142842.218000",
          "142844.718000",
          "142847.218000",
          "142849.718000",
          "142852.218000",
          "142854.718000",
          "142857.218000",
          "142859.718000",
          "142902.218000",
          "142904.718000",
          "142907.218000",
          "142909.718000",
          "142912.218000",
          "142914.718000",
          "142917.218000",
          "142919.718000",
          "142922.218000",
          "142924.718000",
          "142927.218000",
          "142929.718000",
          "142932.218000",
          "142934.718000",
          "142937.218000",
          "142939.718000",
          "142942.218000",
          "142944.718000",
          "142947.218000",
          "142949.718000",
          "142952.218000",
          "142954.718000",
          "142957.218000",
          "142959.718000",
          "143002.218000",
          "143004.718000",
          "143007.218000",
          "143009.718000",
          "143012.218000",
          "143014.718000",
          "143017.218000",
          "143019.718000",
          "143022.218000",
          "143024.718000",
          "143027.218000",
          "143029.718000",
          "143032.218000",
          "143034.718000",
          "143037.218000",
          "143039.718000",
          "143042.218000",
          "143044.718000",
          "143047.218000",
          "143049.718000",
          "143052.218000",
          "143054.718000",
          "143057.218000",
          "143059.718000",
          "143102.218000",
          "143104.718000",
          "143107.218000",
          "143109.718000",
          "143112.218000",
          "143114.718000",
          "143117.218000",
          "143119.718000",
          "143122.218000",
          "143124.718000",
          "143127.218000",
          "143129.718000",
          "143132.218000",
          "143134.718000",
          "143137.218000",
          "143139.718000",
          "143142.218000",
          "143144.718000",
          "143147.218000",
          "143149.718000",
          "143152.218000",
          "143154.718000",
          "143157.218000",
          "143159.718000",
          "143202.218000",
          "143204.718000",
          "143207.218000",
          "143209.718000",
          "143212.218000",
          "143214.718000",
          "143217.218000",
          "143219.718000",
          "143222.218000",
          "143224.718000",
          "143227.218000",
          "143229.718000",
          "143232.218000",
          "143234.718000",
          "143237.218000",
          "143239.718000",
          "143242.218000",
          "143244.718000",
          "143247.218000",
          "143249.718000",
          "143252.218000",
          "143254.718000",
          "143257.218000",
          "143259.718000",
          "143302.218000",
          "143304.718000",
          "143307.218000",
          "143309.718000",
          "143312.218000",
          "143314.718000",
          "143317.218000",
          "143319.718000",
          "143322.218000",
          "143324.718000",
          "143327.218000",
          "143329.718000",
          "143332.218000",
          "143334.718000",
          "143337.218000",
          "143339.718000",
          "143342.218000",
          "143344.718000",
          "143347.218000",
          "143349.718000",
          "143352.218000",
          "143354.656000"
        ],
        "InstanceNumber": [
          1,
          2,
          3,
          4,
          5,
          6,
          7,
          8,
          9,
          10,
          11,
          12,
          13,
          14,
          15,
          16,
          17,
          18,
          19,
          20,
          21,
          22,
          23,
          24,
          25,
          26,
          27,
          28,
          29,
          30,
          31,
          32,
          33,
          34,
          35,
          36,
          37,
          38,
          39,
          40,
          41,
          42,
          43,
          44,
          45,
          46,
          47,
          48,
          49,
          50,
          51,
          52,
          53,
          54,
          55,
          56,
          57,
          58,
          59,
          60,
          61,
          62,
          63,
          64,
          65,
          66,
          67,
          68,
          69,
          70,
          71,
          72,
          73,
          74,
          75,
          76,
          77,
          78,
          79,
          80,
          81,
          82,
          83,
          84,
          85,
          86,
          87,
          88,
          89,
          90,
          91,
          92,
          93,
          94,
          95,
          96,
          97,
          98,
          99,
          100,
          101,
          102,
          103,
          104,
          105,
          106,
          107,
          108,
          109,
          110,
          111,
          112,
          113,
          114,
          115,
          116,
          117,
          118,
          119,
          120,
          121,
          122,
          123,
          124,
          125,
          126,
          127,
          128,
          129,
          130,
          131,
          132,
          133,
          134,
          135,
          136,
          137,
          138,
          139,
          140,
          141,
          142,
          143,
          144,
          145,
          146,
          147,
          148,
          149,
          150,
          151,
          152,
          153,
          154,
          155,
          156,
          157,
          158,
          159,
          160,
          161,
          162,
          163,
          164
        ],
        "LargestImagePixelValue": [
          1424,
          1372,
          1360,
          1341,
          1329,
          1373,
          1338,
          1385,
          1355,
          1349,
          1335,
          1360,
          1362,
          1375,
          1361,
          1359,
          1323,
          1364,
          1349,
          1369,
          1364,
          1367,
          1332,
          1320,
          1346,
          1384,
          1453,
          1354,
          1358,
          1314,
          1341,
          1376,
          1352,
          1374,
          1359,
          1312,
          1338,
          1369,
          1364,
          1328,
          1353,
          1352,
          1338,
          1386,
          1366,
          1349,
          1364,
          1326,
          1293,
          1421,
          1353,
          1359,
          1349,
          1379,
          1379,
          1360,
          1376,
          1341,
          1482,
          1364,
          1348,
          1370,
          1324,
          1389,
          1379,
          1349,
          1368,
          1355,
          1338,
          1358,
          1381,
          1341,
          1368,
          1350,
          1328,
          1400,
          1370,
          1315,
          1402,
          1368,
          1304,
          1366,
          1375,
          1382,
          1394,
          1349,
          1324,
          1344,
          1358,
          1325,
          1395,
          1321,
          1335,
          1354,
          1358,
          1304,
          1340,
          1330,
          1352,
          1333,
          1298,
          1314,
          1468,
          1322,
          1298,
          1325,
          1463,
          1345,
          1306,
          1326,
          1325,
          1340,
          1346,
          1333,
          1349,
          1317,
          1332,
          1338,
          1312,
          1320,
          1347,
          1305,
          1330,
          1405,
          1364,
          1367,
          1387,
          1369,
          1375,
          1347,
          1362,
          1356,
          1361,
          1362,
          1380,
          1338,
          1347,
          1369,
          1366,
          1360,
          1378,
          1362,
          1351,
          1380,
          1320,
          1374,
          1371,
          1326,
          1356,
          1351,
          1322,
          1357,
          1340,
          1359,
          1386,
          1497,
          1367,
          1355,
          1406,
          1421,
          1378,
          1398,
          1421,
          1394
        ],
        "WindowCenter": [
          621.0,
          622.0,
          623.0,
          623.0,
          624.0,
          623.0,
          623.0,
          621.0,
          621.0,
          622.0,
          622.0,
          623.0,
          622.0,
          623.0,
          622.0,
          621.0,
          623.0,
          623.0,
          621.0,
          622.0,
          622.0,
          621.0,
          622.0,
          622.0,
          622.0,
          622.0,
          621.0,
          618.0,
          623.0,
          622.0,
          623.0,
          623.0,
          622.0,
          622.0,
          621.0,
          623.0,
          624.0,
          624.0,
          623.0,
          624.0,
          623.0,
          619.0,
          619.0,
          625.0,
          625.0,
          622.0,
          622.0,
          622.0,
          622.0,
          619.0,
          624.0,
          623.0,
          624.0,
          624.0,
          623.0,
          623.0,
          623.0,
          622.0,
          623.0,
          623.0,
          619.0,
          623.0,
          622.0,
          624.0,
          623.0,
          623.0,
          624.0,
          624.0,
          619.0,
          619.0,
          623.0,
          623.0,
          621.0,
          623.0,
          623.0,
          623.0,
          623.0,
          623.0,
          623.0,
          623.0,
          623.0,
          622.0,
          622.0,
          622.0,
          619.0,
          621.0,
          622.0,
          623.0,
          623.0,
          622.0,
          619.0,
          623.0,
          623.0,
          622.0,
          622.0,
          622.0,
          622.0,
          622.0,
          622.0,
          623.0,
          622.0,
          623.0,
          624.0,
          622.0,
          622.0,
          623.0,
          623.0,
          622.0,
          622.0,
          624.0,
          624.0,
          623.0,
          623.0,
          624.0,
          624.0,
          623.0,
          623.0,
          623.0,
          623.0,
          622.0,
          623.0,
          622.0,
          621.0,
          621.0,
          622.0,
          622.0,
          624.0,
          625.0,
          624.0,
          624.0,
          624.0,
          623.0,
          623.0,
          624.0,
          624.0,
          624.0,
          624.0,
          622.0,
          622.0,
          619.0,
          622.0,
          624.0,
          624.0,
          623.0,
          623.0,
          621.0,
          622.0,
          621.0,
          621.0,
          622.0,
