{
  "aor": 0.010008170731707317,
  "aqi": 0.017420714268292684,
  "bids_meta": {
    "AcquisitionMatrixPE": 64,
    "AcquisitionNumber": 1,
    "AcquisitionTime": "17:08:43.150000",
    "BandwidthPerPixelPhaseEncode": 26.483,
    "BaseResolution": 64,
    "BodyPartExamined": "HEAD",
    "CogAtlasID": "TODO",
    "ConversionSoftware": "dcm2niix",
    "ConversionSoftwareVersion": "v1.0.20171017 GCC6.3.0",
    "DerivedVendorReportedEchoSpacing": 0.000590001,
    "DeviceSerialNumber": "35177",
    "DwellTime": 4.1e-06,
    "EchoTime": 0.027,
    "EffectiveEchoSpacing": 0.000590001,
    "FlipAngle": 90,
    "ImageOrientationPatientDICOM": [
      0.991018,
      0.118541,
      -0.0619059,
      -0.100795,
      0.966319,
      0.236785
    ],
    "ImageType": [
      "ORIGINAL",
      "PRIMARY",
      "M",
      "ND",
      "NORM",
      "MOSAIC"
    ],
    "InPlanePhaseEncodingDirectionDICOM": "COL",
    "InstitutionAddress": "Scott_Ave._4525_St._Louis_MO_US_63110",
    "InstitutionName": "Washington_University",
    "InstitutionalDepartmentName": "Department",
    "MRAcquisitionType": "2D",
    "MagneticFieldStrength": 3,
    "Manufacturer": "Siemens",
    "ManufacturersModelName": "TrioTim",
    "Modality": "MR",
    "PartialFourier": 1,
    "PatientPosition": "HFS",
    "PercentPhaseFOV": 100,
    "PhaseEncodingDirection": "j-",
    "PhaseEncodingSteps": 64,
    "PhaseResolution": 1,
    "PixelBandwidth": 1905,
    "ProcedureStepDescription": "head_GREENE",
    "ProtocolName": "ep2d_bold_ad_movie_1B",
    "PulseSequenceDetails": "%SiemensSeq%_ep2d_bold",
    "ReceiveCoilName": "HeadMatrix",
    "ReconMatrixPE": 64,
    "RepetitionTime": 2.5,
    "SAR": 0.141927,
    "ScanOptions": "FS",
    "ScanningSequence": "EP",
    "SequenceName": "_epfid2d1_64",
    "SequenceVariant": "SK",
    "SeriesDescription": "ep2d_bold_ad_movie_1B",
    "SeriesNumber": 8,
    "ShimSetting": [
      -302,
      -19650,
      8017,
      441,
      12,
      -20,
      590,
      -1
    ],
    "SliceThickness": 4,
    "SliceTiming": [
      1.255,
      0,
      1.3325,
      0.0775,
      1.4125,
      0.1575,
      1.49,
      0.235,
      1.5675,
      0.3125,
      1.6475,
      0.3925,
      1.725,
      0.47,
      1.8025,
      0.55,
      1.8825,
      0.6275,
      1.96,
      0.705,
      2.04,
      0.785,
      2.1175,
      0.8625,
      2.195,
      0.94,
      2.275,
      1.02,
      2.3525,
      1.0975,
      2.43,
      1.1775
    ],
    "SoftwareVersions": "syngo_MR_B17",
    "SpacingBetweenSlices": 4,
    "StationName": "MRC35177",
    "TaskName": "restmovieadaptive",
    "TotalReadoutTime": 0.0371701,
    "TxRefAmp": 351.345,
    "dataset": "ds000256",
    "dcmmeta_affine": [
      [
        -3.9640703201293945,
        -0.4031798839569092,
        -0.3515581786632538,
        143.54417419433594
      ],
      [
        -0.4741620421409607,
        3.8652772903442383,
        0.9136748909950256,
        -131.7812042236328
      ],
      [
        -0.2476235330104828,
        -0.9471413493156433,
        3.878352403640747,
        4.2241973876953125
      ],
      [
        0.0,
        0.0,
        0.0,
        1.0
      ]
    ],
    "dcmmeta_reorient_transform": [
      [
        0.0,
        -1.0,
        0.0,
        63.0
      ],
      [
        1.0,
        0.0,
        0.0,
        0.0
      ],
      [
        0.0,
        0.0,
        1.0,
        0.0
      ],
      [
        0.0,
        0.0,
        0.0,
        1.0
      ]
    ],
    "dcmmeta_shape": [
      64,
      64,
      32,
      164
    ],
    "dcmmeta_slice_dim": 2,
    "dcmmeta_version": 0.6,
    "global": {
      "const": {
        "AccessionNumber": ".",
        "AcquisitionMatrix": [
          64,
          0,
          0,
          64
        ],
        "AngioFlag": "N",
        "BitsAllocated": 16,
        "BitsStored": 12,
        "BodyPartExamined": "HEAD",
        "Columns": 384,
        "DeidentificationMethodCodeSequence": [
          {
            "CodeMeaning": "XNAT Edit Script",
            "CodeValue": "625500",
            "CodingSchemeDesignator": "XNAT",
            "CodingSchemeVersion": "0.1"
          }
        ],
        "EchoNumbers": 1,
        "EchoTime": 27.0,
        "EchoTrainLength": 1,
        "FlipAngle": 90.0,
        "HighBit": 11,
        "ImageOrientationPatient": [
          0.99101756205372,
          0.11854051341877,
          -0.0619058832383,
          -0.1007949698849,
          0.96631934415875,
          0.23678534403653
        ],
        "ImagePositionPatient": [
          -687.8862933264,
          -806.04158563113,
          -167.3685640461
        ],
        "ImageType": [
          "ORIGINAL",
          "PRIMARY",
          "M",
          "ND",
          "NORM",
          "MOSAIC"
        ],
        "ImagedNucleus": "1H",
        "ImagingFrequency": 123.256106,
        "InPlanePhaseEncodingDirection": "COL",
        "MRAcquisitionType": "2D",
        "MagneticFieldStrength": 3.0,
        "Manufacturer": "SIEMENS",
        "ManufacturerModelName": "TrioTim",
        "Modality": "MR",
        "NumberOfAverages": 1.0,
        "NumberOfPhaseEncodingSteps": 64,
        "PercentPhaseFieldOfView": 100.0,
        "PercentSampling": 100.0,
        "PerformedProcedureStepStartTime": "163246.328000",
        "PhotometricInterpretation": "MONOCHROME2",
        "PixelBandwidth": 1905.0,
        "PixelRepresentation": 0,
        "PixelSpacing": [
          4.0,
          4.0
        ],
        "PositionReferenceIndicator": "",
        "ProtocolName": "ep2d_bold_ad_movie_1B",
        "RepetitionTime": 2500.0,
        "Rows": 384,
        "SAR": 0.14192723919662,
        "SamplesPerPixel": 1,
        "ScanOptions": "FS",
        "ScanningSequence": "EP",
        "SequenceName": "*epfid2d1_64",
        "SequenceVariant": "SK",
        "SeriesDescription": "ep2d_bold_ad_movie_1B",
        "SeriesNumber": 8,
        "SeriesTime": "170845.140000",
        "SliceLocation": -38.621577237173,
        "SliceThickness": 4.0,
        "SmallestImagePixelValue": 0,
        "SoftwareVersions": "syngo MR B17",
        "SpacingBetweenSlices": 4.0000014896331,
        "SpecificCharacterSet": "ISO_IR 100",
        "StudyID": "1",
        "StudyTime": "163246.281000",
        "TransmitCoilName": "Body",
        "VariableFlipAngleFlag": "N",
        "WindowCenterWidthExplanation": "Algo1",
        "dBdt": 0.0
      },
      "slices": {}
    },
    "modality": "bold",
    "subject_id": "CTS226",
    "task_id": "restmovieadaptive",
    "time": {
      "samples": {
        "AcquisitionNumber": [
          1,
          2,
          3,
          4,
          5,
          6,
          7,
          8,
          9,
          10,
          11,
          12,
          13,
          14,
          15,
          16,
          17,
          18,
          19,
          20,
          21,
          22,
          23,
          24,
          25,
          26,
          27,
          28,
          29,
          30,
          31,
          32,
          33,
          34,
          35,
          36,
          37,
          38,
          39,
          40,
          41,
          42,
          43,
          44,
          45,
          46,
          47,
          48,
          49,
          50,
          51,
          52,
          53,
          54,
          55,
          56,
          57,
          58,
          59,
          60,
          61,
          62,
          63,
          64,
          65,
          66,
          67,
          68,
          69,
          70,
          71,
          72,
          73,
          74,
          75,
          76,
          77,
          78,
          79,
          80,
          81,
          82,
          83,
          84,
          85,
          86,
          87,
          88,
          89,
          90,
          91,
          92,
          93,
          94,
          95,
          96,
          97,
          98,
          99,
          100,
          101,
          102,
          103,
          104,
          105,
          106,
          107,
          108,
          109,
          110,
          111,
          112,
          113,
          114,
          115,
          116,
          117,
          118,
          119,
          120,
          121,
          122,
          123,
          124,
          125,
          126,
          127,
          128,
          129,
          130,
          131,
          132,
          133,
          134,
          135,
          136,
          137,
          138,
          139,
          140,
          141,
          142,
          143,
          144,
          145,
          146,
          147,
          148,
          149,
          150,
          151,
          152,
          153,
          154,
          155,
          156,
          157,
          158,
          159,
          160,
          161,
          162,
          163,
          164
        ],
        "AcquisitionTime": [
          "170843.150000",
          "170845.660000",
          "170848.170000",
          "170850.680000",
          "170853.190000",
          "170855.700000",
          "170858.210000",
          "170900.720000",
          "170903.230000",
          "170905.740000",
          "170908.250000",
          "170910.760000",
          "170913.270000",
          "170915.780000",
          "170918.290000",
          "170920.800000",
          "170923.310000",
          "170925.820000",
          "170928.330000",
          "170930.840000",
          "170933.350000",
          "170935.860000",
          "170938.370000",
          "170940.880000",
          "170943.390000",
          "170945.900000",
          "170948.410000",
          "170950.920000",
          "170953.430000",
          "170955.940000",
          "170958.450000",
          "171000.960000",
          "171003.470000",
          "171005.980000",
          "171008.490000",
          "171011.000000",
          "171013.510000",
          "171016.020000",
          "171018.532500",
          "171021.042500",
          "171023.552500",
          "171026.062500",
          "171028.572500",
          "171031.082500",
          "171033.592500",
          "171036.102500",
          "171038.612500",
          "171041.122500",
          "171043.632500",
          "171046.142500",
          "171048.652500",
          "171051.162500",
          "171053.672500",
          "171056.182500",
          "171058.692500",
          "171101.202500",
          "171103.712500",
          "171106.222500",
          "171108.732500",
          "171111.242500",
          "171113.752500",
          "171116.262500",
          "171118.772500",
          "171121.282500",
          "171123.792500",
          "171126.302500",
          "171128.812500",
          "171131.322500",
          "171133.832500",
          "171136.342500",
          "171138.852500",
          "171141.362500",
          "171143.872500",
          "171146.382500",
          "171148.892500",
          "171151.402500",
          "171153.912500",
          "171156.422500",
          "171158.932500",
          "171201.442500",
          "171203.952500",
          "171206.462500",
          "171208.972500",
          "171211.482500",
          "171213.992500",
          "171216.502500",
          "171219.012500",
          "171221.522500",
          "171224.032500",
          "171226.542500",
          "171229.052500",
          "171231.562500",
          "171234.072500",
          "171236.582500",
          "171239.092500",
          "171241.602500",
          "171244.112500",
          "171246.622500",
          "171249.132500",
          "171251.642500",
          "171254.155000",
          "171256.665000",
          "171259.175000",
          "171301.685000",
          "171304.195000",
          "171306.705000",
          "171309.215000",
          "171311.725000",
          "171314.235000",
          "171316.745000",
          "171319.255000",
          "171321.765000",
          "171324.275000",
          "171326.785000",
          "171329.295000",
          "171331.805000",
          "171334.315000",
          "171336.825000",
          "171339.335000",
          "171341.845000",
          "171344.355000",
          "171346.865000",
          "171349.375000",
          "171351.885000",
          "171354.395000",
          "171356.905000",
          "171359.415000",
          "171401.925000",
          "171404.435000",
          "171406.945000",
          "171409.455000",
          "171411.965000",
          "171414.475000",
          "171416.985000",
          "171419.495000",
          "171422.005000",
          "171424.515000",
          "171427.025000",
          "171429.535000",
          "171432.045000",
          "171434.555000",
          "171437.065000",
          "171439.575000",
          "171442.085000",
          "171444.595000",
          "171447.105000",
          "171449.615000",
          "171452.125000",
          "171454.635000",
          "171457.145000",
          "171459.655000",
          "171502.165000",
          "171504.675000",
          "171507.185000",
          "171509.695000",
          "171512.205000",
          "171514.715000",
          "171517.225000",
          "171519.735000",
          "171522.245000",
          "171524.755000",
          "171527.265000",
          "171529.777500",
          "171532.287500"
        ],
        "ContentTime": [
          "170845.156000",
          "170847.640000",
          "170850.140000",
          "170852.640000",
          "170855.140000",
          "170857.640000",
          "170900.140000",
          "170902.640000",
          "170905.140000",
          "170907.640000",
          "170910.140000",
          "170912.640000",
          "170915.140000",
          "170917.640000",
          "170920.140000",
          "170922.640000",
          "170925.140000",
          "170927.640000",
          "170930.140000",
          "170932.640000",
          "170935.140000",
          "170937.640000",
          "170940.140000",
          "170942.640000",
          "170945.140000",
          "170947.640000",
          "170950.140000",
          "170952.640000",
          "170955.140000",
          "170957.640000",
          "171000.140000",
          "171002.640000",
          "171005.140000",
          "171007.640000",
          "171010.140000",
          "171012.640000",
          "171015.140000",
          "171017.640000",
          "171020.140000",
          "171022.640000",
          "171025.140000",
          "171027.640000",
          "171030.140000",
          "171032.640000",
          "171035.140000",
          "171037.640000",
          "171040.140000",
          "171042.640000",
          "171045.140000",
          "171047.640000",
          "171050.140000",
          "171052.640000",
          "171055.140000",
          "171057.640000",
          "171100.140000",
          "171102.640000",
          "171105.140000",
          "171107.640000",
          "171110.140000",
          "171112.640000",
          "171115.140000",
          "171117.640000",
          "171120.140000",
          "171122.640000",
          "171125.140000",
          "171127.640000",
          "171130.140000",
          "171132.640000",
          "171135.140000",
          "171137.640000",
          "171140.140000",
          "171142.640000",
          "171145.140000",
          "171147.640000",
          "171150.140000",
          "171152.640000",
          "171155.140000",
          "171157.640000",
          "171200.140000",
          "171202.640000",
          "171205.140000",
          "171207.640000",
          "171210.140000",
          "171212.640000",
          "171215.140000",
          "171217.640000",
          "171220.140000",
          "171222.640000",
          "171225.140000",
          "171227.640000",
          "171230.140000",
          "171232.640000",
          "171235.140000",
          "171237.640000",
          "171240.140000",
          "171242.640000",
          "171245.140000",
          "171247.640000",
          "171250.140000",
          "171252.640000",
          "171255.140000",
          "171257.640000",
          "171300.140000",
          "171302.640000",
          "171305.140000",
          "171307.640000",
          "171310.140000",
          "171312.640000",
          "171315.140000",
          "171317.640000",
          "171320.140000",
          "171322.640000",
          "171325.140000",
          "171327.640000",
          "171330.140000",
          "171332.640000",
          "171335.140000",
          "171337.640000",
          "171340.140000",
          "171342.640000",
          "171345.140000",
          "171347.640000",
          "171350.140000",
          "171352.640000",
          "171355.140000",
          "171357.640000",
          "171400.140000",
          "171402.640000",
          "171405.140000",
          "171407.640000",
          "171410.140000",
          "171412.640000",
          "171415.140000",
          "171417.640000",
          "171420.140000",
          "171422.640000",
          "171425.140000",
          "171427.640000",
          "171430.140000",
          "171432.640000",
          "171435.140000",
          "171437.640000",
          "171440.140000",
          "171442.640000",
          "171445.140000",
          "171447.640000",
          "171450.140000",
          "171452.640000",
          "171455.140000",
          "171457.640000",
          "171500.140000",
          "171502.640000",
          "171505.140000",
          "171507.640000",
          "171510.140000",
          "171512.640000",
          "171515.140000",
          "171517.640000",
          "171520.140000",
          "171522.640000",
          "171525.140000",
          "171527.640000",
          "171530.140000",
          "171532.578000"
        ],
        "InstanceCreationTime": [
          "170845.156000",
          "170847.640000",
          "170850.140000",
          "170852.640000",
          "170855.140000",
          "170857.640000",
          "170900.140000",
          "170902.640000",
          "170905.140000",
          "170907.640000",
          "170910.140000",
          "170912.640000",
          "170915.140000",
          "170917.640000",
          "170920.140000",
          "170922.640000",
          "170925.140000",
          "170927.640000",
          "170930.140000",
          "170932.640000",
          "170935.140000",
          "170937.640000",
          "170940.140000",
          "170942.640000",
          "170945.140000",
          "170947.640000",
          "170950.140000",
          "170952.640000",
          "170955.140000",
          "170957.640000",
          "171000.140000",
          "171002.640000",
          "171005.140000",
          "171007.640000",
          "171010.140000",
          "171012.640000",
          "171015.140000",
          "171017.640000",
          "171020.140000",
          "171022.640000",
          "171025.140000",
          "171027.640000",
          "171030.140000",
          "171032.640000",
          "171035.140000",
          "171037.640000",
          "171040.140000",
          "171042.640000",
          "171045.140000",
          "171047.640000",
          "171050.140000",
          "171052.640000",
          "171055.140000",
          "171057.640000",
          "171100.140000",
          "171102.640000",
          "171105.140000",
          "171107.640000",
          "171110.140000",
          "171112.640000",
          "171115.140000",
          "171117.640000",
          "171120.140000",
          "171122.640000",
          "171125.140000",
          "171127.640000",
          "171130.140000",
          "171132.640000",
          "171135.140000",
          "171137.640000",
          "171140.140000",
          "171142.640000",
          "171145.140000",
          "171147.640000",
          "171150.140000",
          "171152.640000",
          "171155.140000",
          "171157.640000",
          "171200.140000",
          "171202.640000",
          "171205.140000",
          "171207.640000",
          "171210.140000",
          "171212.640000",
          "171215.140000",
          "171217.640000",
          "171220.140000",
          "171222.640000",
          "171225.140000",
          "171227.640000",
          "171230.140000",
          "171232.640000",
          "171235.140000",
          "171237.640000",
          "171240.140000",
          "171242.640000",
          "171245.140000",
          "171247.640000",
          "171250.140000",
          "171252.640000",
          "171255.140000",
          "171257.640000",
          "171300.140000",
          "171302.640000",
          "171305.140000",
          "171307.640000",
          "171310.140000",
          "171312.640000",
          "171315.140000",
          "171317.640000",
          "171320.140000",
          "171322.640000",
          "171325.140000",
          "171327.640000",
          "171330.140000",
          "171332.640000",
          "171335.140000",
          "171337.640000",
          "171340.140000",
          "171342.640000",
          "171345.140000",
          "171347.640000",
          "171350.140000",
          "171352.640000",
          "171355.140000",
          "171357.640000",
          "171400.140000",
          "171402.640000",
          "171405.140000",
          "171407.640000",
          "171410.140000",
          "171412.640000",
          "171415.140000",
          "171417.640000",
          "171420.140000",
          "171422.640000",
          "171425.140000",
          "171427.640000",
          "171430.140000",
          "171432.640000",
          "171435.140000",
          "171437.640000",
          "171440.140000",
          "171442.640000",
          "171445.140000",
          "171447.640000",
          "171450.140000",
          "171452.640000",
          "171455.140000",
          "171457.640000",
          "171500.140000",
          "171502.640000",
          "171505.140000",
          "171507.640000",
          "171510.140000",
          "171512.640000",
          "171515.140000",
          "171517.640000",
          "171520.140000",
          "171522.640000",
          "171525.140000",
          "171527.640000",
          "171530.140000",
          "171532.578000"
        ],
        "InstanceNumber": [
          1,
          2,
          3,
          4,
          5,
          6,
          7,
          8,
          9,
          10,
          11,
          12,
          13,
          14,
          15,
          16,
          17,
          18,
          19,
          20,
          21,
          22,
          23,
          24,
          25,
          26,
          27,
          28,
          29,
          30,
          31,
          32,
          33,
          34,
          35,
          36,
          37,
          38,
          39,
          40,
          41,
          42,
          43,
          44,
          45,
          46,
          47,
          48,
          49,
          50,
          51,
          52,
          53,
          54,
          55,
          56,
          57,
          58,
          59,
          60,
          61,
          62,
          63,
          64,
          65,
          66,
          67,
          68,
          69,
          70,
          71,
          72,
          73,
          74,
          75,
          76,
          77,
          78,
          79,
          80,
          81,
          82,
          83,
          84,
          85,
          86,
          87,
          88,
          89,
          90,
          91,
          92,
          93,
          94,
          95,
          96,
          97,
          98,
          99,
          100,
          101,
          102,
          103,
          104,
          105,
          106,
          107,
          108,
          109,
          110,
          111,
          112,
          113,
          114,
          115,
          116,
          117,
          118,
          119,
          120,
          121,
          122,
          123,
          124,
          125,
          126,
          127,
          128,
          129,
          130,
          131,
          132,
          133,
          134,
          135,
          136,
          137,
          138,
          139,
          140,
          141,
          142,
          143,
          144,
          145,
          146,
          147,
          148,
          149,
          150,
          151,
          152,
          153,
          154,
          155,
          156,
          157,
          158,
          159,
          160,
          161,
          162,
          163,
          164
        ],
        "LargestImagePixelValue": [
          1904,
          1792,
          1647,
          1596,
          1484,
          1441,
          1621,
          1751,
          1533,
          1589,
          1665,
          1610,
          1697,
          1471,
          1406,
          1607,
          1631,
          1456,
          1511,
          1437,
          1694,
          1587,
          1653,
          1538,
          1484,
          1533,
          1514,
          1528,
          1626,
          1560,
          1545,
          1520,
          1509,
          1502,
          1606,
          1802,
          1546,
          1666,
          1518,
          1521,
          1624,
          1682,
          1526,
          1538,
          1695,
          1551,
          1433,
          1384,
          1537,
          1527,
          1724,
          1570,
          1547,
          1785,
          1845,
          1489,
          1515,
          1525,
          1543,
          1678,
          1597,
          1516,
          1510,
          1705,
          1529,
          1505,
          1496,
          1509,
          1905,
          1536,
          1525,
          1611,
          1524,
          1743,
          1498,
          1584,
          1510,
          1757,
          1497,
          1480,
          1668,
          1866,
          1491,
          1738,
          1525,
          1577,
          1740,
          1593,
          1456,
          1667,
          1485,
          1573,
          1480,
          1631,
          1595,
          1930,
          1451,
          1472,
          1919,
          1921,
          1488,
          1545,
          1732,
          1490,
          2186,
          1514,
          1516,
          1506,
          1572,
          1567,
          1853,
          1487,
          1874,
          1561,
          1566,
          1749,
          1462,
          1789,
          1564,
          1491,
          1921,
          1485,
          1551,
          1486,
          1487,
          1507,
          1458,
          1568,
          2000,
          1715,
          1616,
          1643,
          1572,
          2092,
          1562,
          1571,
          1548,
          1511,
          1840,
          1565,
          1564,
          1796,
          1958,
          1669,
          2122,
          1897,
          1547,
          1575,
          1582,
          1772,
          1566,
          1580,
          1963,
          1589,
          1880,
          1578,
          1797,
          1546,
          1594,
          1548,
          1794,
          1581,
          1685,
          1597
        ],
        "WindowCenter": [
          650.0,
          648.0,
          651.0,
          649.0,
          649.0,
          648.0,
          649.0,
          650.0,
          650.0,
          647.0,
          650.0,
          648.0,
          649.0,
          644.0,
          645.0,
          651.0,
          648.0,
          649.0,
          646.0,
          649.0,
          647.0,
          647.0,
          649.0,
          646.0,
          648.0,
          647.0,
          646.0,
          649.0,
          647.0,
          648.0,
          649.0,
          648.0,
          647.0,
          649.0,
          650.0,
          649.0,
          649.0,
          649.0,
          647.0,
          648.0,
          648.0,
          647.0,
          645.0,
          647.0,
          648.0,
          647.0,
          649.0,
          649.0,
          649.0,
          650.0,
          649.0,
          646.0,
          648.0,
          648.0,
          646.0,
          647.0,
          647.0,
          648.0,
          648.0,
          649.0,
          646.0,
          648.0,
          647.0,
          650.0,
          648.0,
          648.0,
          649.0,
          650.0,
          651.0,
          650.0,
          650.0,
          648.0,
          648.0,
          650.0,
          648.0,
          648.0,
          650.0,
          648.0,
          649.0,
          647.0,
          649.0,
          649.0,
          648.0,
          648.0,
          648.0,
          646.0,
          648.0,
          648.0,
          647.0,
          648.0,
          647.0,
          648.0,
          650.0,
          649.0,
          648.0,
          647.0,
          648.0,
          649.0,
          649.0,
          649.0,
          648.0,
          649.0,
          649.0,
          647.0,
          649.0,
          647.0,
          648.0,
          647.0,
          648.0,
          646.0,
          649.0,
          647.0,
          648.0,
          647.0,
          648.0,
          649.0,
          648.0,
          649.0,
          648.0,
          649.0,
          649.0,
          648.0,
          649.0,
          648.0,
          648.0,
          648.0,
          648.0,
          649.0,
          650.0,
          649.0,
          649.0,
          648.0,
          647.0,
          650.0,
          648.0,
          647.0,
          649.0,
          649.0,
          649.0,
          649.0,
          650.0,
          650.0,
          650.0,
          649.0,
          650.0,
          649.0,
          648.0,
          647.0,
          648.0,
