{
  "aor": 0.016701463414634146,
  "aqi": 0.030401509268292683,
  "bids_meta": {
    "AcquisitionMatrixPE": 64,
    "AcquisitionNumber": 1,
    "AcquisitionTime": "16:52:50.382500",
    "BandwidthPerPixelPhaseEncode": 26.483,
    "BaseResolution": 64,
    "BodyPartExamined": "HEAD",
    "CogAtlasID": "TODO",
    "ConversionSoftware": "dcm2niix",
    "ConversionSoftwareVersion": "v1.0.20171017 GCC6.3.0",
    "DerivedVendorReportedEchoSpacing": 0.000590001,
    "DeviceSerialNumber": "35177",
    "DwellTime": 4.1e-06,
    "EchoTime": 0.027,
    "EffectiveEchoSpacing": 0.000590001,
    "FlipAngle": 90,
    "ImageOrientationPatientDICOM": [
      0.991018,
      0.118541,
      -0.0619059,
      -0.100795,
      0.966319,
      0.236785
    ],
    "ImageType": [
      "ORIGINAL",
      "PRIMARY",
      "M",
      "ND",
      "NORM",
      "MOSAIC"
    ],
    "InPlanePhaseEncodingDirectionDICOM": "COL",
    "InstitutionAddress": "Scott_Ave._4525_St._Louis_MO_US_63110",
    "InstitutionName": "Washington_University",
    "InstitutionalDepartmentName": "Department",
    "MRAcquisitionType": "2D",
    "MagneticFieldStrength": 3,
    "Manufacturer": "Siemens",
    "ManufacturersModelName": "TrioTim",
    "Modality": "MR",
    "PartialFourier": 1,
    "PatientPosition": "HFS",
    "PercentPhaseFOV": 100,
    "PhaseEncodingDirection": "j-",
    "PhaseEncodingSteps": 64,
    "PhaseResolution": 1,
    "PixelBandwidth": 1905,
    "ProcedureStepDescription": "head_GREENE",
    "ProtocolName": "ep2d_bold_nonad_movie_3C",
    "PulseSequenceDetails": "%SiemensSeq%_ep2d_bold",
    "ReceiveCoilName": "HeadMatrix",
    "ReconMatrixPE": 64,
    "RepetitionTime": 2.5,
    "SAR": 0.141927,
    "ScanOptions": "FS",
    "ScanningSequence": "EP",
    "SequenceName": "_epfid2d1_64",
    "SequenceVariant": "SK",
    "SeriesDescription": "ep2d_bold_nonad_movie_3C",
    "SeriesNumber": 6,
    "ShimSetting": [
      -302,
      -19650,
      8017,
      441,
      12,
      -20,
      590,
      -1
    ],
    "SliceThickness": 4,
    "SliceTiming": [
      1.255,
      0,
      1.335,
      0.08,
      1.4125,
      0.1575,
      1.49,
      0.2375,
      1.57,
      0.315,
      1.6475,
      0.3925,
      1.7275,
      0.4725,
      1.805,
      0.55,
      1.8825,
      0.6275,
      1.9625,
      0.7075,
      2.04,
      0.785,
      2.1175,
      0.865,
      2.1975,
      0.9425,
      2.275,
      1.02,
      2.355,
      1.1,
      2.4325,
      1.1775
    ],
    "SoftwareVersions": "syngo_MR_B17",
    "SpacingBetweenSlices": 4,
    "StationName": "MRC35177",
    "TaskName": "restmoviefixed",
    "TotalReadoutTime": 0.0371701,
    "TxRefAmp": 351.345,
    "dataset": "ds000256",
    "dcmmeta_affine": [
      [
        -3.9640703201293945,
        -0.4031798839569092,
        -0.3515581786632538,
        143.54417419433594
      ],
      [
        -0.4741620421409607,
        3.8652772903442383,
        0.9136748909950256,
        -131.7812042236328
      ],
      [
        -0.2476235330104828,
        -0.9471413493156433,
        3.878352403640747,
        4.2241973876953125
      ],
      [
        0.0,
        0.0,
        0.0,
        1.0
      ]
    ],
    "dcmmeta_reorient_transform": [
      [
        0.0,
        -1.0,
        0.0,
        63.0
      ],
      [
        1.0,
        0.0,
        0.0,
        0.0
      ],
      [
        0.0,
        0.0,
        1.0,
        0.0
      ],
      [
        0.0,
        0.0,
        0.0,
        1.0
      ]
    ],
    "dcmmeta_shape": [
      64,
      64,
      32,
      164
    ],
    "dcmmeta_slice_dim": 2,
    "dcmmeta_version": 0.6,
    "global": {
      "const": {
        "AccessionNumber": ".",
        "AcquisitionMatrix": [
          64,
          0,
          0,
          64
        ],
        "AngioFlag": "N",
        "BitsAllocated": 16,
        "BitsStored": 12,
        "BodyPartExamined": "HEAD",
        "Columns": 384,
        "DeidentificationMethodCodeSequence": [
          {
            "CodeMeaning": "XNAT Edit Script",
            "CodeValue": "625500",
            "CodingSchemeDesignator": "XNAT",
            "CodingSchemeVersion": "0.1"
          }
        ],
        "EchoNumbers": 1,
        "EchoTime": 27.0,
        "EchoTrainLength": 1,
        "FlipAngle": 90.0,
        "HighBit": 11,
        "ImageOrientationPatient": [
          0.99101756205372,
          0.11854051341877,
          -0.0619058832383,
          -0.1007949698849,
          0.96631934415875,
          0.23678534403653
        ],
        "ImagePositionPatient": [
          -687.8862933264,
          -806.04158563113,
          -167.3685640461
        ],
        "ImageType": [
          "ORIGINAL",
          "PRIMARY",
          "M",
          "ND",
          "NORM",
          "MOSAIC"
        ],
        "ImagedNucleus": "1H",
        "ImagingFrequency": 123.256104,
        "InPlanePhaseEncodingDirection": "COL",
        "MRAcquisitionType": "2D",
        "MagneticFieldStrength": 3.0,
        "Manufacturer": "SIEMENS",
        "ManufacturerModelName": "TrioTim",
        "Modality": "MR",
        "NumberOfAverages": 1.0,
        "NumberOfPhaseEncodingSteps": 64,
        "PercentPhaseFieldOfView": 100.0,
        "PercentSampling": 100.0,
        "PerformedProcedureStepStartTime": "163246.328000",
        "PhotometricInterpretation": "MONOCHROME2",
        "PixelBandwidth": 1905.0,
        "PixelRepresentation": 0,
        "PixelSpacing": [
          4.0,
          4.0
        ],
        "PositionReferenceIndicator": "",
        "ProtocolName": "ep2d_bold_nonad_movie_3C",
        "RepetitionTime": 2500.0,
        "Rows": 384,
        "SAR": 0.14192723919662,
        "SamplesPerPixel": 1,
        "ScanOptions": "FS",
        "ScanningSequence": "EP",
        "SequenceName": "*epfid2d1_64",
        "SequenceVariant": "SK",
        "SeriesDescription": "ep2d_bold_nonad_movie_3C",
        "SeriesNumber": 6,
        "SeriesTime": "165252.406000",
        "SliceLocation": -38.621577237173,
        "SliceThickness": 4.0,
        "SmallestImagePixelValue": 0,
        "SoftwareVersions": "syngo MR B17",
        "SpacingBetweenSlices": 4.0000014896331,
        "SpecificCharacterSet": "ISO_IR 100",
        "StudyID": "1",
        "StudyTime": "163246.281000",
        "TransmitCoilName": "Body",
        "VariableFlipAngleFlag": "N",
        "WindowCenterWidthExplanation": "Algo1",
        "dBdt": 0.0
      },
      "slices": {}
    },
    "modality": "bold",
    "subject_id": "CTS226",
    "task_id": "restmoviefixed",
    "time": {
      "samples": {
        "AcquisitionNumber": [
          1,
          2,
          3,
          4,
          5,
          6,
          7,
          8,
          9,
          10,
          11,
          12,
          13,
          14,
          15,
          16,
          17,
          18,
          19,
          20,
          21,
          22,
          23,
          24,
          25,
          26,
          27,
          28,
          29,
          30,
          31,
          32,
          33,
          34,
          35,
          36,
          37,
          38,
          39,
          40,
          41,
          42,
          43,
          44,
          45,
          46,
          47,
          48,
          49,
          50,
          51,
          52,
          53,
          54,
          55,
          56,
          57,
          58,
          59,
          60,
          61,
          62,
          63,
          64,
          65,
          66,
          67,
          68,
          69,
          70,
          71,
          72,
          73,
          74,
          75,
          76,
          77,
          78,
          79,
          80,
          81,
          82,
          83,
          84,
          85,
          86,
          87,
          88,
          89,
          90,
          91,
          92,
          93,
          94,
          95,
          96,
          97,
          98,
          99,
          100,
          101,
          102,
          103,
          104,
          105,
          106,
          107,
          108,
          109,
          110,
          111,
          112,
          113,
          114,
          115,
          116,
          117,
          118,
          119,
          120,
          121,
          122,
          123,
          124,
          125,
          126,
          127,
          128,
          129,
          130,
          131,
          132,
          133,
          134,
          135,
          136,
          137,
          138,
          139,
          140,
          141,
          142,
          143,
          144,
          145,
          146,
          147,
          148,
          149,
          150,
          151,
          152,
          153,
          154,
          155,
          156,
          157,
          158,
          159,
          160,
          161,
          162,
          163,
          164
        ],
        "AcquisitionTime": [
          "165250.382500",
          "165252.892500",
          "165255.402500",
          "165257.912500",
          "165300.422500",
          "165302.932500",
          "165305.442500",
          "165307.952500",
          "165310.462500",
          "165312.975000",
          "165315.485000",
          "165317.995000",
          "165320.505000",
          "165323.015000",
          "165325.525000",
          "165328.035000",
          "165330.545000",
          "165333.055000",
          "165335.565000",
          "165338.075000",
          "165340.585000",
          "165343.095000",
          "165345.605000",
          "165348.115000",
          "165350.625000",
          "165353.135000",
          "165355.645000",
          "165358.155000",
          "165400.665000",
          "165403.175000",
          "165405.685000",
          "165408.195000",
          "165410.705000",
          "165413.215000",
          "165415.725000",
          "165418.235000",
          "165420.745000",
          "165423.255000",
          "165425.765000",
          "165428.275000",
          "165430.785000",
          "165433.295000",
          "165435.805000",
          "165438.315000",
          "165440.825000",
          "165443.335000",
          "165445.845000",
          "165448.355000",
          "165450.865000",
          "165453.375000",
          "165455.885000",
          "165458.395000",
          "165500.905000",
          "165503.415000",
          "165505.925000",
          "165508.435000",
          "165510.945000",
          "165513.455000",
          "165515.965000",
          "165518.475000",
          "165520.985000",
          "165523.495000",
          "165526.005000",
          "165528.515000",
          "165531.025000",
          "165533.535000",
          "165536.045000",
          "165538.555000",
          "165541.065000",
          "165543.575000",
          "165546.085000",
          "165548.597500",
          "165551.107500",
          "165553.617500",
          "165556.127500",
          "165558.637500",
          "165601.147500",
          "165603.657500",
          "165606.167500",
          "165608.677500",
          "165611.187500",
          "165613.697500",
          "165616.207500",
          "165618.717500",
          "165621.227500",
          "165623.737500",
          "165626.247500",
          "165628.757500",
          "165631.267500",
          "165633.777500",
          "165636.287500",
          "165638.797500",
          "165641.307500",
          "165643.817500",
          "165646.327500",
          "165648.837500",
          "165651.347500",
          "165653.857500",
          "165656.367500",
          "165658.877500",
          "165701.387500",
          "165703.897500",
          "165706.407500",
          "165708.917500",
          "165711.427500",
          "165713.937500",
          "165716.447500",
          "165718.957500",
          "165721.467500",
          "165723.977500",
          "165726.487500",
          "165728.997500",
          "165731.507500",
          "165734.017500",
          "165736.527500",
          "165739.037500",
          "165741.547500",
          "165744.057500",
          "165746.567500",
          "165749.077500",
          "165751.587500",
          "165754.097500",
          "165756.607500",
          "165759.117500",
          "165801.627500",
          "165804.137500",
          "165806.647500",
          "165809.157500",
          "165811.667500",
          "165814.177500",
          "165816.687500",
          "165819.197500",
          "165821.707500",
          "165824.220000",
          "165826.730000",
          "165829.240000",
          "165831.750000",
          "165834.260000",
          "165836.770000",
          "165839.280000",
          "165841.790000",
          "165844.300000",
          "165846.810000",
          "165849.320000",
          "165851.830000",
          "165854.340000",
          "165856.850000",
          "165859.360000",
          "165901.870000",
          "165904.380000",
          "165906.890000",
          "165909.400000",
          "165911.910000",
          "165914.420000",
          "165916.930000",
          "165919.440000",
          "165921.950000",
          "165924.460000",
          "165926.970000",
          "165929.480000",
          "165931.990000",
          "165934.500000",
          "165937.010000",
          "165939.520000"
        ],
        "ContentTime": [
          "165252.406000",
          "165254.906000",
          "165257.406000",
          "165259.906000",
          "165302.406000",
          "165304.906000",
          "165307.406000",
          "165309.906000",
          "165312.406000",
          "165314.906000",
          "165317.406000",
          "165319.906000",
          "165322.406000",
          "165324.906000",
          "165327.406000",
          "165329.906000",
          "165332.406000",
          "165334.906000",
          "165337.406000",
          "165339.906000",
          "165342.406000",
          "165344.906000",
          "165347.406000",
          "165349.906000",
          "165352.406000",
          "165354.906000",
          "165357.406000",
          "165359.906000",
          "165402.406000",
          "165404.906000",
          "165407.406000",
          "165409.906000",
          "165412.406000",
          "165414.906000",
          "165417.406000",
          "165419.906000",
          "165422.406000",
          "165424.906000",
          "165427.406000",
          "165429.906000",
          "165432.406000",
          "165434.906000",
          "165437.406000",
          "165439.906000",
          "165442.406000",
          "165444.906000",
          "165447.406000",
          "165449.906000",
          "165452.406000",
          "165454.906000",
          "165457.406000",
          "165459.906000",
          "165502.406000",
          "165504.906000",
          "165507.406000",
          "165509.906000",
          "165512.406000",
          "165514.906000",
          "165517.406000",
          "165519.906000",
          "165522.406000",
          "165524.906000",
          "165527.406000",
          "165529.906000",
          "165532.406000",
          "165534.906000",
          "165537.406000",
          "165539.906000",
          "165542.406000",
          "165544.906000",
          "165547.406000",
          "165549.906000",
          "165552.406000",
          "165554.906000",
          "165557.406000",
          "165559.906000",
          "165602.406000",
          "165604.906000",
          "165607.406000",
          "165609.906000",
          "165612.406000",
          "165614.906000",
          "165617.406000",
          "165619.906000",
          "165622.406000",
          "165624.906000",
          "165627.406000",
          "165629.906000",
          "165632.406000",
          "165634.906000",
          "165637.406000",
          "165639.906000",
          "165642.406000",
          "165644.906000",
          "165647.406000",
          "165649.906000",
          "165652.406000",
          "165654.906000",
          "165657.406000",
          "165659.906000",
          "165702.406000",
          "165704.906000",
          "165707.406000",
          "165709.906000",
          "165712.406000",
          "165714.906000",
          "165717.406000",
          "165719.906000",
          "165722.406000",
          "165724.906000",
          "165727.406000",
          "165729.906000",
          "165732.406000",
          "165734.906000",
          "165737.406000",
          "165739.906000",
          "165742.406000",
          "165744.906000",
          "165747.406000",
          "165749.906000",
          "165752.406000",
          "165754.906000",
          "165757.406000",
          "165759.906000",
          "165802.406000",
          "165804.906000",
          "165807.406000",
          "165809.906000",
          "165812.406000",
          "165814.906000",
          "165817.406000",
          "165819.906000",
          "165822.406000",
          "165824.906000",
          "165827.406000",
          "165829.906000",
          "165832.406000",
          "165834.906000",
          "165837.406000",
          "165839.906000",
          "165842.406000",
          "165844.906000",
          "165847.406000",
          "165849.906000",
          "165852.406000",
          "165854.906000",
          "165857.406000",
          "165859.906000",
          "165902.406000",
          "165904.906000",
          "165907.406000",
          "165909.906000",
          "165912.406000",
          "165914.906000",
          "165917.406000",
          "165919.906000",
          "165922.406000",
          "165924.906000",
          "165927.406000",
          "165929.906000",
          "165932.406000",
          "165934.906000",
          "165937.406000",
          "165939.843000"
        ],
        "InstanceCreationTime": [
          "165252.406000",
          "165254.906000",
          "165257.406000",
          "165259.906000",
          "165302.406000",
          "165304.906000",
          "165307.406000",
          "165309.906000",
          "165312.406000",
          "165314.906000",
          "165317.406000",
          "165319.906000",
          "165322.406000",
          "165324.906000",
          "165327.406000",
          "165329.906000",
          "165332.406000",
          "165334.906000",
          "165337.406000",
          "165339.906000",
          "165342.406000",
          "165344.906000",
          "165347.406000",
          "165349.906000",
          "165352.406000",
          "165354.906000",
          "165357.406000",
          "165359.906000",
          "165402.406000",
          "165404.906000",
          "165407.406000",
          "165409.906000",
          "165412.406000",
          "165414.906000",
          "165417.406000",
          "165419.906000",
          "165422.406000",
          "165424.906000",
          "165427.406000",
          "165429.906000",
          "165432.406000",
          "165434.906000",
          "165437.406000",
          "165439.906000",
          "165442.406000",
          "165444.906000",
          "165447.406000",
          "165449.906000",
          "165452.406000",
          "165454.906000",
          "165457.406000",
          "165459.906000",
          "165502.406000",
          "165504.906000",
          "165507.406000",
          "165509.906000",
          "165512.406000",
          "165514.906000",
          "165517.406000",
          "165519.906000",
          "165522.406000",
          "165524.906000",
          "165527.406000",
          "165529.906000",
          "165532.406000",
          "165534.906000",
          "165537.406000",
          "165539.906000",
          "165542.406000",
          "165544.906000",
          "165547.406000",
          "165549.906000",
          "165552.406000",
          "165554.906000",
          "165557.406000",
          "165559.906000",
          "165602.406000",
          "165604.906000",
          "165607.406000",
          "165609.906000",
          "165612.406000",
          "165614.906000",
          "165617.406000",
          "165619.906000",
          "165622.406000",
          "165624.906000",
          "165627.406000",
          "165629.906000",
          "165632.406000",
          "165634.906000",
          "165637.406000",
          "165639.906000",
          "165642.406000",
          "165644.906000",
          "165647.406000",
          "165649.906000",
          "165652.406000",
          "165654.906000",
          "165657.406000",
          "165659.906000",
          "165702.406000",
          "165704.906000",
          "165707.406000",
          "165709.906000",
          "165712.406000",
          "165714.906000",
          "165717.406000",
          "165719.906000",
          "165722.406000",
          "165724.906000",
          "165727.406000",
          "165729.906000",
          "165732.406000",
          "165734.906000",
          "165737.406000",
          "165739.906000",
          "165742.406000",
          "165744.906000",
          "165747.406000",
          "165749.906000",
          "165752.406000",
          "165754.906000",
          "165757.406000",
          "165759.906000",
          "165802.406000",
          "165804.906000",
          "165807.406000",
          "165809.906000",
          "165812.406000",
          "165814.906000",
          "165817.406000",
          "165819.906000",
          "165822.406000",
          "165824.906000",
          "165827.406000",
          "165829.906000",
          "165832.406000",
          "165834.906000",
          "165837.406000",
          "165839.906000",
          "165842.406000",
          "165844.906000",
          "165847.406000",
          "165849.906000",
          "165852.406000",
          "165854.906000",
          "165857.406000",
          "165859.906000",
          "165902.406000",
          "165904.906000",
          "165907.406000",
          "165909.906000",
          "165912.406000",
          "165914.906000",
          "165917.406000",
          "165919.906000",
          "165922.406000",
          "165924.906000",
          "165927.406000",
          "165929.906000",
          "165932.406000",
          "165934.906000",
          "165937.406000",
          "165939.843000"
        ],
        "InstanceNumber": [
          1,
          2,
          3,
          4,
          5,
          6,
          7,
          8,
          9,
          10,
          11,
          12,
          13,
          14,
          15,
          16,
          17,
          18,
          19,
          20,
          21,
          22,
          23,
          24,
          25,
          26,
          27,
          28,
          29,
          30,
          31,
          32,
          33,
          34,
          35,
          36,
          37,
          38,
          39,
          40,
          41,
          42,
          43,
          44,
          45,
          46,
          47,
          48,
          49,
          50,
          51,
          52,
          53,
          54,
          55,
          56,
          57,
          58,
          59,
          60,
          61,
          62,
          63,
          64,
          65,
          66,
          67,
          68,
          69,
          70,
          71,
          72,
          73,
          74,
          75,
          76,
          77,
          78,
          79,
          80,
          81,
          82,
          83,
          84,
          85,
          86,
          87,
          88,
          89,
          90,
          91,
          92,
          93,
          94,
          95,
          96,
          97,
          98,
          99,
          100,
          101,
          102,
          103,
          104,
          105,
          106,
          107,
          108,
          109,
          110,
          111,
          112,
          113,
          114,
          115,
          116,
          117,
          118,
          119,
          120,
          121,
          122,
          123,
          124,
          125,
          126,
          127,
          128,
          129,
          130,
          131,
          132,
          133,
          134,
          135,
          136,
          137,
          138,
          139,
          140,
          141,
          142,
          143,
          144,
          145,
          146,
          147,
          148,
          149,
          150,
          151,
          152,
          153,
          154,
          155,
          156,
          157,
          158,
          159,
          160,
          161,
          162,
          163,
          164
        ],
        "LargestImagePixelValue": [
          1461,
          1445,
          1747,
          1528,
          1504,
          1457,
          1449,
          1484,
          1442,
          1645,
          1544,
          1490,
          1489,
          1486,
          1526,
          1523,
          1540,
          1532,
          1512,
          1445,
          1439,
          1569,
          1499,
          1442,
          1490,
          1472,
          1484,
          1502,
          1485,
          1470,
          1540,
          1475,
          1497,
          1493,
          1522,
          1457,
          1410,
          1428,
          1420,
          1518,
          1455,
          1505,
          1529,
          1519,
          1560,
          1560,
          1529,
          1472,
          1510,
          1524,
          1479,
          1469,
          1529,
          1485,
          1469,
          1432,
          1480,
          1469,
          1472,
          1423,
          1506,
          1665,
          1514,
          1408,
          1440,
          1445,
          1522,
          1489,
          1386,
          1418,
          1416,
          1403,
          1456,
          1410,
          1370,
          1388,
          1420,
          1408,
          1416,
          1413,
          1465,
          1487,
          1408,
          1434,
          1531,
          1549,
          1515,
          1404,
          1417,
          1431,
          1441,
          1462,
          1455,
          1371,
          1445,
          1398,
          1444,
          1411,
          1456,
          1784,
          1476,
          1425,
          1418,
          1415,
          1413,
          1420,
          1430,
          1422,
          1538,
          1411,
          1410,
          1493,
          1504,
          1476,
          1434,
          1555,
          1402,
          1391,
          1391,
          1406,
          1407,
          1547,
          1505,
          1547,
          1470,
          1629,
          1493,
          1510,
          1439,
          1496,
          1460,
          1455,
          1486,
          1431,
          1397,
          1459,
          1429,
          1545,
          1403,
          1436,
          1527,
          1500,
          1486,
          1472,
          1496,
          1448,
          1440,
          1479,
          1420,
          1413,
          1398,
          1410,
          1408,
          1403,
          1389,
          1393,
          1415,
          1429,
          1383,
          1395,
          1425,
          1414,
          1491,
          1424
        ],
        "WindowCenter": [
          644.0,
          641.0,
          638.0,
          641.0,
          642.0,
          643.0,
          642.0,
          642.0,
          637.0,
          645.0,
          642.0,
          641.0,
          641.0,
          642.0,
          643.0,
          642.0,
          642.0,
          639.0,
          644.0,
          642.0,
          624.0,
          644.0,
          643.0,
          639.0,
          642.0,
          641.0,
          642.0,
          643.0,
          641.0,
          642.0,
          641.0,
          641.0,
          642.0,
          642.0,
          643.0,
          641.0,
          641.0,
          641.0,
          642.0,
          641.0,
          642.0,
          642.0,
          641.0,
          644.0,
          644.0,
          642.0,
          643.0,
          642.0,
          642.0,
          643.0,
          641.0,
          641.0,
          643.0,
          643.0,
          642.0,
          640.0,
          644.0,
          643.0,
          643.0,
          642.0,
          641.0,
          642.0,
          642.0,
          641.0,
          642.0,
          637.0,
          639.0,
          642.0,
          641.0,
          641.0,
          642.0,
          642.0,
          641.0,
          640.0,
          643.0,
          644.0,
          643.0,
          642.0,
          642.0,
          642.0,
          643.0,
          644.0,
          643.0,
          643.0,
          644.0,
          643.0,
          643.0,
          642.0,
          642.0,
          641.0,
          641.0,
          643.0,
          641.0,
          642.0,
          642.0,
          644.0,
          643.0,
          643.0,
          643.0,
          642.0,
          640.0,
          641.0,
          642.0,
          642.0,
          641.0,
          642.0,
          643.0,
          643.0,
          643.0,
          642.0,
          644.0,
          644.0,
          643.0,
          643.0,
          643.0,
          644.0,
          641.0,
          643.0,
          644.0,
          644.0,
          644.0,
          643.0,
          640.0,
          641.0,
          640.0,
          641.0,
          640.0,
          642.0,
          641.0,
          641.0,
          640.0,
          639.0,
          641.0,
          640.0,
          641.0,
          642.0,
          641.0,
          641.0,
          642.0,
          641.0,
          640.0,
          640.0,
          639.0,
          642.0,
          643.0,
          640.0,
          642.0,
          640.0,
          642.0,
