{
  "aor": 0.02616701219512195,
  "aqi": 0.021052676585365856,
  "bids_meta": {
    "AcquisitionMatrixPE": 64,
    "AcquisitionNumber": 1,
    "AcquisitionTime": "14:20:12.005000",
    "BandwidthPerPixelPhaseEncode": 26.483,
    "BaseResolution": 64,
    "BodyPartExamined": "HEAD",
    "CogAtlasID": "TODO",
    "ConversionSoftware": "dcm2niix",
    "ConversionSoftwareVersion": "v1.0.20171017 GCC6.3.0",
    "DerivedVendorReportedEchoSpacing": 0.000590001,
    "DeviceSerialNumber": "35177",
    "DwellTime": 4.1e-06,
    "EchoTime": 0.027,
    "EffectiveEchoSpacing": 0.000590001,
    "FlipAngle": 90,
    "ImageOrientationPatientDICOM": [
      0.99676,
      -0.000540161,
      -0.0804348,
      0.0113085,
      0.990987,
      0.133482
    ],
    "ImageType": [
      "ORIGINAL",
      "PRIMARY",
      "M",
      "ND",
      "NORM",
      "MOSAIC"
    ],
    "InPlanePhaseEncodingDirectionDICOM": "COL",
    "InstitutionAddress": "Scott_Ave._4525_St._Louis_MO_US_63110",
    "InstitutionName": "Washington_University",
    "InstitutionalDepartmentName": "Department",
    "MRAcquisitionType": "2D",
    "MagneticFieldStrength": 3,
    "Manufacturer": "Siemens",
    "ManufacturersModelName": "TrioTim",
    "Modality": "MR",
    "PartialFourier": 1,
    "PatientPosition": "HFS",
    "PercentPhaseFOV": 100,
    "PhaseEncodingDirection": "j-",
    "PhaseEncodingSteps": 64,
    "PhaseResolution": 1,
    "PixelBandwidth": 1905,
    "ProcedureStepDescription": "head_GREENE",
    "ProtocolName": "ep2d_bold_movie_rest_1B",
    "PulseSequenceDetails": "%SiemensSeq%_ep2d_bold",
    "ReceiveCoilName": "HeadMatrix",
    "ReconMatrixPE": 64,
    "RepetitionTime": 2.5,
    "SAR": 0.14361,
    "ScanOptions": "FS",
    "ScanningSequence": "EP",
    "SequenceName": "_epfid2d1_64",
    "SequenceVariant": "SK",
    "SeriesDescription": "ep2d_bold_movie_rest_1B",
    "SeriesNumber": 10,
    "ShimSetting": [
      -247,
      -19573,
      8096,
      439,
      162,
      -14,
      187,
      18
    ],
    "SliceThickness": 4,
    "SliceTiming": [
      1.255,
      0,
      1.335,
      0.08,
      1.4125,
      0.1575,
      1.49,
      0.2375,
      1.57,
      0.315,
      1.6475,
      0.3925,
      1.7275,
      0.4725,
      1.805,
      0.55,
      1.8825,
      0.6275,
      1.9625,
      0.7075,
      2.04,
      0.785,
      2.1175,
      0.865,
      2.1975,
      0.9425,
      2.275,
      1.02,
      2.355,
      1.1,
      2.4325,
      1.1775
    ],
    "SoftwareVersions": "syngo_MR_B17",
    "SpacingBetweenSlices": 4,
    "StationName": "MRC35177",
    "TaskName": "restmovienofeedback",
    "TotalReadoutTime": 0.0371701,
    "TxRefAmp": 353.169,
    "dataset": "ds000256",
    "dcmmeta_affine": [
      [
        -3.9870388507843018,
        0.04523400589823723,
        -0.3185510039329529,
        131.1153564453125
      ],
      [
        0.0021606453228741884,
        3.963947057723999,
        0.5358344316482544,
        -136.75186157226562
      ],
      [
        -0.3217393457889557,
        -0.5339261889457703,
        3.95112681388855,
        3.1323585510253906
      ],
      [
        0.0,
        0.0,
        0.0,
        1.0
      ]
    ],
    "dcmmeta_reorient_transform": [
      [
        0.0,
        -1.0,
        0.0,
        63.0
      ],
      [
        1.0,
        0.0,
        0.0,
        0.0
      ],
      [
        0.0,
        0.0,
        1.0,
        0.0
      ],
      [
        0.0,
        0.0,
        0.0,
        1.0
      ]
    ],
    "dcmmeta_shape": [
      64,
      64,
      32,
      164
    ],
    "dcmmeta_slice_dim": 2,
    "dcmmeta_version": 0.6,
    "global": {
      "const": {
        "AccessionNumber": ".",
        "AcquisitionMatrix": [
          64,
          0,
          0,
          64
        ],
        "AngioFlag": "N",
        "BitsAllocated": 16,
        "BitsStored": 12,
        "BodyPartExamined": "HEAD",
        "Columns": 384,
        "DeidentificationMethodCodeSequence": [
          {
            "CodeMeaning": "XNAT Edit Script",
            "CodeValue": "625500",
            "CodingSchemeDesignator": "XNAT",
            "CodingSchemeVersion": "0.1"
          }
        ],
        "EchoNumbers": 1,
        "EchoTime": 27.0,
        "EchoTrainLength": 1,
        "FlipAngle": 90.0,
        "HighBit": 11,
        "ImageOrientationPatient": [
          0.99675972300084,
          -0.0005401613117,
          -0.0804348359173,
          0.01130850126388,
          0.99098677889418,
          0.13348154125612
        ],
        "ImagePositionPatient": [
          -779.12875831493,
          -746.86264734573,
          -64.454881296888
        ],
        "ImageType": [
          "ORIGINAL",
          "PRIMARY",
          "M",
          "ND",
          "NORM",
          "MOSAIC"
        ],
        "ImagedNucleus": "1H",
        "ImagingFrequency": 123.255853,
        "InPlanePhaseEncodingDirection": "COL",
        "MRAcquisitionType": "2D",
        "MagneticFieldStrength": 3.0,
        "Manufacturer": "SIEMENS",
        "ManufacturerModelName": "TrioTim",
        "Modality": "MR",
        "NumberOfAverages": 1.0,
        "NumberOfPhaseEncodingSteps": 64,
        "PercentPhaseFieldOfView": 100.0,
        "PercentSampling": 100.0,
        "PerformedProcedureStepStartTime": "133015.734000",
        "PhotometricInterpretation": "MONOCHROME2",
        "PixelBandwidth": 1905.0,
        "PixelRepresentation": 0,
        "PixelSpacing": [
          4.0,
          4.0
        ],
        "PositionReferenceIndicator": "",
        "ProtocolName": "ep2d_bold_movie_rest_1B",
        "RepetitionTime": 2500.0,
        "Rows": 384,
        "SAR": 0.14361029609994,
        "SamplesPerPixel": 1,
        "ScanOptions": "FS",
        "ScanningSequence": "EP",
        "SequenceName": "*epfid2d1_64",
        "SequenceVariant": "SK",
        "SeriesDescription": "ep2d_bold_movie_rest_1B",
        "SeriesNumber": 10,
        "SeriesTime": "142014.625000",
        "SliceLocation": -25.666735994396,
        "SliceThickness": 4.0,
        "SmallestImagePixelValue": 0,
        "SoftwareVersions": "syngo MR B17",
        "SpacingBetweenSlices": 3.999999578603,
        "SpecificCharacterSet": "ISO_IR 100",
        "StudyID": "1",
        "StudyTime": "133015.687000",
        "TransmitCoilName": "Body",
        "VariableFlipAngleFlag": "N",
        "WindowCenterWidthExplanation": "Algo1",
        "dBdt": 0.0
      },
      "slices": {}
    },
    "modality": "bold",
    "subject_id": "CTS208",
    "task_id": "restmovienofeedback",
    "time": {
      "samples": {
        "AcquisitionNumber": [
          1,
          2,
          3,
          4,
          5,
          6,
          7,
          8,
          9,
          10,
          11,
          12,
          13,
          14,
          15,
          16,
          17,
          18,
          19,
          20,
          21,
          22,
          23,
          24,
          25,
          26,
          27,
          28,
          29,
          30,
          31,
          32,
          33,
          34,
          35,
          36,
          37,
          38,
          39,
          40,
          41,
          42,
          43,
          44,
          45,
          46,
          47,
          48,
          49,
          50,
          51,
          52,
          53,
          54,
          55,
          56,
          57,
          58,
          59,
          60,
          61,
          62,
          63,
          64,
          65,
          66,
          67,
          68,
          69,
          70,
          71,
          72,
          73,
          74,
          75,
          76,
          77,
          78,
          79,
          80,
          81,
          82,
          83,
          84,
          85,
          86,
          87,
          88,
          89,
          90,
          91,
          92,
          93,
          94,
          95,
          96,
          97,
          98,
          99,
          100,
          101,
          102,
          103,
          104,
          105,
          106,
          107,
          108,
          109,
          110,
          111,
          112,
          113,
          114,
          115,
          116,
          117,
          118,
          119,
          120,
          121,
          122,
          123,
          124,
          125,
          126,
          127,
          128,
          129,
          130,
          131,
          132,
          133,
          134,
          135,
          136,
          137,
          138,
          139,
          140,
          141,
          142,
          143,
          144,
          145,
          146,
          147,
          148,
          149,
          150,
          151,
          152,
          153,
          154,
          155,
          156,
          157,
          158,
          159,
          160,
          161,
          162,
          163,
          164
        ],
        "AcquisitionTime": [
          "142012.005000",
          "142014.515000",
          "142017.025000",
          "142019.535000",
          "142022.045000",
          "142024.555000",
          "142027.065000",
          "142029.575000",
          "142032.085000",
          "142034.595000",
          "142037.107500",
          "142039.617500",
          "142042.127500",
          "142044.637500",
          "142047.147500",
          "142049.657500",
          "142052.167500",
          "142054.677500",
          "142057.187500",
          "142059.697500",
          "142102.207500",
          "142104.717500",
          "142107.227500",
          "142109.737500",
          "142112.247500",
          "142114.757500",
          "142117.267500",
          "142119.777500",
          "142122.287500",
          "142124.797500",
          "142127.307500",
          "142129.817500",
          "142132.327500",
          "142134.837500",
          "142137.347500",
          "142139.857500",
          "142142.367500",
          "142144.877500",
          "142147.387500",
          "142149.897500",
          "142152.407500",
          "142154.917500",
          "142157.427500",
          "142159.937500",
          "142202.447500",
          "142204.957500",
          "142207.467500",
          "142209.977500",
          "142212.487500",
          "142214.997500",
          "142217.507500",
          "142220.017500",
          "142222.527500",
          "142225.037500",
          "142227.547500",
          "142230.057500",
          "142232.567500",
          "142235.077500",
          "142237.587500",
          "142240.097500",
          "142242.607500",
          "142245.117500",
          "142247.627500",
          "142250.137500",
          "142252.647500",
          "142255.157500",
          "142257.667500",
          "142300.177500",
          "142302.687500",
          "142305.197500",
          "142307.707500",
          "142310.217500",
          "142312.730000",
          "142315.240000",
          "142317.750000",
          "142320.260000",
          "142322.770000",
          "142325.280000",
          "142327.790000",
          "142330.300000",
          "142332.810000",
          "142335.320000",
          "142337.830000",
          "142340.340000",
          "142342.850000",
          "142345.360000",
          "142347.870000",
          "142350.380000",
          "142352.890000",
          "142355.400000",
          "142357.910000",
          "142400.420000",
          "142402.930000",
          "142405.440000",
          "142407.950000",
          "142410.460000",
          "142412.970000",
          "142415.480000",
          "142417.990000",
          "142420.500000",
          "142423.010000",
          "142425.520000",
          "142428.030000",
          "142430.540000",
          "142433.050000",
          "142435.560000",
          "142438.070000",
          "142440.580000",
          "142443.090000",
          "142445.600000",
          "142448.110000",
          "142450.620000",
          "142453.130000",
          "142455.640000",
          "142458.150000",
          "142500.660000",
          "142503.170000",
          "142505.680000",
          "142508.190000",
          "142510.700000",
          "142513.210000",
          "142515.720000",
          "142518.230000",
          "142520.740000",
          "142523.250000",
          "142525.760000",
          "142528.270000",
          "142530.780000",
          "142533.290000",
          "142535.800000",
          "142538.310000",
          "142540.820000",
          "142543.330000",
          "142545.840000",
          "142548.352500",
          "142550.862500",
          "142553.372500",
          "142555.882500",
          "142558.392500",
          "142600.902500",
          "142603.412500",
          "142605.922500",
          "142608.432500",
          "142610.942500",
          "142613.452500",
          "142615.962500",
          "142618.472500",
          "142620.982500",
          "142623.492500",
          "142626.002500",
          "142628.512500",
          "142631.022500",
          "142633.532500",
          "142636.042500",
          "142638.552500",
          "142641.062500",
          "142643.572500",
          "142646.082500",
          "142648.592500",
          "142651.102500",
          "142653.612500",
          "142656.122500",
          "142658.632500",
          "142701.142500"
        ],
        "ContentTime": [
          "142014.625000",
          "142017.109000",
          "142019.609000",
          "142022.109000",
          "142024.609000",
          "142027.109000",
          "142029.609000",
          "142032.109000",
          "142034.609000",
          "142037.109000",
          "142039.609000",
          "142042.109000",
          "142044.609000",
          "142047.109000",
          "142049.609000",
          "142052.109000",
          "142054.609000",
          "142057.109000",
          "142059.609000",
          "142102.109000",
          "142104.609000",
          "142107.109000",
          "142109.609000",
          "142112.109000",
          "142114.609000",
          "142117.109000",
          "142119.609000",
          "142122.109000",
          "142124.609000",
          "142127.109000",
          "142129.609000",
          "142132.109000",
          "142134.609000",
          "142137.109000",
          "142139.609000",
          "142142.109000",
          "142144.609000",
          "142147.109000",
          "142149.609000",
          "142152.109000",
          "142154.609000",
          "142157.109000",
          "142159.609000",
          "142202.109000",
          "142204.609000",
          "142207.109000",
          "142209.609000",
          "142212.109000",
          "142214.609000",
          "142217.109000",
          "142219.609000",
          "142222.109000",
          "142224.609000",
          "142227.109000",
          "142229.609000",
          "142232.109000",
          "142234.609000",
          "142237.109000",
          "142239.609000",
          "142242.109000",
          "142244.609000",
          "142247.109000",
          "142249.609000",
          "142252.109000",
          "142254.609000",
          "142257.109000",
          "142259.609000",
          "142302.109000",
          "142304.609000",
          "142307.109000",
          "142309.609000",
          "142312.109000",
          "142314.609000",
          "142317.109000",
          "142319.609000",
          "142322.109000",
          "142324.609000",
          "142327.109000",
          "142329.609000",
          "142332.109000",
          "142334.609000",
          "142337.109000",
          "142339.609000",
          "142342.109000",
          "142344.609000",
          "142347.109000",
          "142349.609000",
          "142352.109000",
          "142354.609000",
          "142357.109000",
          "142359.609000",
          "142402.109000",
          "142404.609000",
          "142407.109000",
          "142409.609000",
          "142412.109000",
          "142414.609000",
          "142417.109000",
          "142419.609000",
          "142422.109000",
          "142424.609000",
          "142427.109000",
          "142429.609000",
          "142432.109000",
          "142434.609000",
          "142437.109000",
          "142439.609000",
          "142442.109000",
          "142444.609000",
          "142447.109000",
          "142449.609000",
          "142452.109000",
          "142454.609000",
          "142457.109000",
          "142459.609000",
          "142502.109000",
          "142504.609000",
          "142507.109000",
          "142509.609000",
          "142512.109000",
          "142514.609000",
          "142517.109000",
          "142519.609000",
          "142522.109000",
          "142524.609000",
          "142527.109000",
          "142529.609000",
          "142532.109000",
          "142534.609000",
          "142537.109000",
          "142539.609000",
          "142542.109000",
          "142544.609000",
          "142547.109000",
          "142549.609000",
          "142552.109000",
          "142554.609000",
          "142557.109000",
          "142559.609000",
          "142602.109000",
          "142604.609000",
          "142607.109000",
          "142609.609000",
          "142612.109000",
          "142614.609000",
          "142617.109000",
          "142619.609000",
          "142622.109000",
          "142624.609000",
          "142627.109000",
          "142629.609000",
          "142632.109000",
          "142634.609000",
          "142637.109000",
          "142639.609000",
          "142642.109000",
          "142644.609000",
          "142647.109000",
          "142649.609000",
          "142652.109000",
          "142654.609000",
          "142657.109000",
          "142659.609000",
          "142701.937000"
        ],
        "InstanceCreationTime": [
          "142014.625000",
          "142017.109000",
          "142019.609000",
          "142022.109000",
          "142024.609000",
          "142027.109000",
          "142029.609000",
          "142032.109000",
          "142034.609000",
          "142037.109000",
          "142039.609000",
          "142042.109000",
          "142044.609000",
          "142047.109000",
          "142049.609000",
          "142052.109000",
          "142054.609000",
          "142057.109000",
          "142059.609000",
          "142102.109000",
          "142104.609000",
          "142107.109000",
          "142109.609000",
          "142112.109000",
          "142114.609000",
          "142117.109000",
          "142119.609000",
          "142122.109000",
          "142124.609000",
          "142127.109000",
          "142129.609000",
          "142132.109000",
          "142134.609000",
          "142137.109000",
          "142139.609000",
          "142142.109000",
          "142144.609000",
          "142147.109000",
          "142149.609000",
          "142152.109000",
          "142154.609000",
          "142157.109000",
          "142159.609000",
          "142202.109000",
          "142204.609000",
          "142207.109000",
          "142209.609000",
          "142212.109000",
          "142214.609000",
          "142217.109000",
          "142219.609000",
          "142222.109000",
          "142224.609000",
          "142227.109000",
          "142229.609000",
          "142232.109000",
          "142234.609000",
          "142237.109000",
          "142239.609000",
          "142242.109000",
          "142244.609000",
          "142247.109000",
          "142249.609000",
          "142252.109000",
          "142254.609000",
          "142257.109000",
          "142259.609000",
          "142302.109000",
          "142304.609000",
          "142307.109000",
          "142309.609000",
          "142312.109000",
          "142314.609000",
          "142317.109000",
          "142319.609000",
          "142322.109000",
          "142324.609000",
          "142327.109000",
          "142329.609000",
          "142332.109000",
          "142334.609000",
          "142337.109000",
          "142339.609000",
          "142342.109000",
          "142344.609000",
          "142347.109000",
          "142349.609000",
          "142352.109000",
          "142354.609000",
          "142357.109000",
          "142359.609000",
          "142402.109000",
          "142404.609000",
          "142407.109000",
          "142409.609000",
          "142412.109000",
          "142414.609000",
          "142417.109000",
          "142419.609000",
          "142422.109000",
          "142424.609000",
          "142427.109000",
          "142429.609000",
          "142432.109000",
          "142434.609000",
          "142437.109000",
          "142439.609000",
          "142442.109000",
          "142444.609000",
          "142447.109000",
          "142449.609000",
          "142452.109000",
          "142454.609000",
          "142457.109000",
          "142459.609000",
          "142502.109000",
          "142504.609000",
          "142507.109000",
          "142509.609000",
          "142512.109000",
          "142514.609000",
          "142517.109000",
          "142519.609000",
          "142522.109000",
          "142524.609000",
          "142527.109000",
          "142529.609000",
          "142532.109000",
          "142534.609000",
          "142537.109000",
          "142539.609000",
          "142542.109000",
          "142544.609000",
          "142547.109000",
          "142549.609000",
          "142552.109000",
          "142554.609000",
          "142557.109000",
          "142559.609000",
          "142602.109000",
          "142604.609000",
          "142607.109000",
          "142609.609000",
          "142612.109000",
          "142614.609000",
          "142617.109000",
          "142619.609000",
          "142622.109000",
          "142624.609000",
          "142627.109000",
          "142629.609000",
          "142632.109000",
          "142634.609000",
          "142637.109000",
          "142639.609000",
          "142642.109000",
          "142644.609000",
          "142647.109000",
          "142649.609000",
          "142652.109000",
          "142654.609000",
          "142657.109000",
          "142659.609000",
          "142701.937000"
        ],
        "InstanceNumber": [
          1,
          2,
          3,
          4,
          5,
          6,
          7,
          8,
          9,
          10,
          11,
          12,
          13,
          14,
          15,
          16,
          17,
          18,
          19,
          20,
          21,
          22,
          23,
          24,
          25,
          26,
          27,
          28,
          29,
          30,
          31,
          32,
          33,
          34,
          35,
          36,
          37,
          38,
          39,
          40,
          41,
          42,
          43,
          44,
          45,
          46,
          47,
          48,
          49,
          50,
          51,
          52,
          53,
          54,
          55,
          56,
          57,
          58,
          59,
          60,
          61,
          62,
          63,
          64,
          65,
          66,
          67,
          68,
          69,
          70,
          71,
          72,
          73,
          74,
          75,
          76,
          77,
          78,
          79,
          80,
          81,
          82,
          83,
          84,
          85,
          86,
          87,
          88,
          89,
          90,
          91,
          92,
          93,
          94,
          95,
          96,
          97,
          98,
          99,
          100,
          101,
          102,
          103,
          104,
          105,
          106,
          107,
          108,
          109,
          110,
          111,
          112,
          113,
          114,
          115,
          116,
          117,
          118,
          119,
          120,
          121,
          122,
          123,
          124,
          125,
          126,
          127,
          128,
          129,
          130,
          131,
          132,
          133,
          134,
          135,
          136,
          137,
          138,
          139,
          140,
          141,
          142,
          143,
          144,
          145,
          146,
          147,
          148,
          149,
          150,
          151,
          152,
          153,
          154,
          155,
          156,
          157,
          158,
          159,
          160,
          161,
          162,
          163,
          164
        ],
        "LargestImagePixelValue": [
          1207,
          1347,
          1399,
          1170,
          1198,
          1177,
          1225,
          1277,
          1186,
          1217,
          1276,
          1343,
          1208,
          1301,
          1268,
          1191,
          1204,
          1175,
          1174,
          1206,
          1275,
          1247,
          1195,
          1320,
          1175,
          1224,
          1214,
          1218,
          1297,
          1275,
          1201,
          1183,
          1255,
          1185,
          1174,
          1266,
          1215,
          1247,
          1214,
          1199,
          1248,
          1250,
          1193,
          1346,
          1296,
          1212,
          1253,
          1233,
          1227,
          1216,
          1222,
          1275,
          1220,
          1212,
          1216,
          1217,
          1193,
          1197,
          1275,
          1234,
          1263,
          1232,
          1234,
          1207,
          1243,
          1239,
          1229,
          1226,
          1326,
          1239,
          1312,
          1250,
          1237,
          1222,
          1209,
          1190,
          1311,
          1193,
          1213,
          1180,
          1248,
          1219,
          1415,
          1218,
          1215,
          1214,
          1212,
          1213,
          1285,
          1282,
          1266,
          1212,
          1196,
          1184,
          1320,
          1198,
          1202,
          1201,
          1298,
          1186,
          1179,
          1254,
          1334,
          1228,
          1194,
          1262,
          1206,
          1205,
          1213,
          1199,
          1250,
          1225,
          1242,
          1329,
          1215,
          1215,
          1236,
          1244,
          1227,
          1262,
          1206,
          1364,
          1236,
          1247,
          1234,
          1229,
          1210,
          1297,
          1215,
          1274,
          1197,
          1233,
          1183,
          1198,
          1297,
          1249,
          1214,
          1221,
          1257,
          1378,
          1213,
          1260,
          1225,
          1258,
          1337,
          1209,
          1238,
          1359,
          1221,
          1228,
          1373,
          1480,
          1254,
          1303,
          1242,
          1175,
          1230,
          1203,
          1231,
          1206,
          1266,
          1220,
          1213,
          1286
        ],
        "WindowCenter": [
          598.0,
          597.0,
          595.0,
          594.0,
          596.0,
          596.0,
          597.0,
          597.0,
          597.0,
          596.0,
          596.0,
          596.0,
          595.0,
          596.0,
          597.0,
          595.0,
          596.0,
          595.0,
          596.0,
          595.0,
          596.0,
          598.0,
          598.0,
          596.0,
          594.0,
          597.0,
          598.0,
          597.0,
          596.0,
          595.0,
          595.0,
          595.0,
          596.0,
          597.0,
          597.0,
          598.0,
          598.0,
          596.0,
          597.0,
          596.0,
          595.0,
          598.0,
          596.0,
          597.0,
          596.0,
          596.0,
          597.0,
          597.0,
          596.0,
          596.0,
          594.0,
          596.0,
          597.0,
          597.0,
          596.0,
          597.0,
          597.0,
          596.0,
          596.0,
          597.0,
          597.0,
          597.0,
          596.0,
          595.0,
          596.0,
          595.0,
          596.0,
          597.0,
          597.0,
          596.0,
          599.0,
          597.0,
          596.0,
          596.0,
          595.0,
          594.0,
          595.0,
          594.0,
          596.0,
          591.0,
          599.0,
          597.0,
          596.0,
          595.0,
          593.0,
          596.0,
          596.0,
          597.0,
          596.0,
          597.0,
          596.0,
          597.0,
          598.0,
          597.0,
          597.0,
          596.0,
          596.0,
          596.0,
          596.0,
          596.0,
          595.0,
          598.0,
          598.0,
          597.0,
          595.0,
          595.0,
          596.0,
          597.0,
          597.0,
          598.0,
          597.0,
          597.0,
          598.0,
          597.0,
          596.0,
          597.0,
          597.0,
          597.0,
          597.0,
          596.0,
          598.0,
          596.0,
          597.0,
          597.0,
          597.0,
          597.0,
          595.0,
          599.0,
          598.0,
          597.0,
          597.0,
          595.0,
          595.0,
          595.0,
          596.0,
          597.0,
          596.0,
          595.0,
          596.0,
          596.0,
          596.0,
          597.0,
          598.0,
          598.0,
          596.0,
          594.0,
          596.0,
          595.0,
