{
  "aor": 0.033928841463414634,
  "aqi": 0.02063934463414634,
  "bids_meta": {
    "AcquisitionMatrixPE": 64,
    "AcquisitionNumber": 1,
    "AcquisitionTime": "14:12:15.490000",
    "BandwidthPerPixelPhaseEncode": 26.483,
    "BaseResolution": 64,
    "BodyPartExamined": "HEAD",
    "CogAtlasID": "TODO",
    "ConversionSoftware": "dcm2niix",
    "ConversionSoftwareVersion": "v1.0.20171017 GCC6.3.0",
    "DerivedVendorReportedEchoSpacing": 0.000590001,
    "DeviceSerialNumber": "35177",
    "DwellTime": 4.1e-06,
    "EchoTime": 0.027,
    "EffectiveEchoSpacing": 0.000590001,
    "FlipAngle": 90,
    "ImageOrientationPatientDICOM": [
      0.99676,
      -0.000540161,
      -0.0804348,
      0.0113085,
      0.990987,
      0.133482
    ],
    "ImageType": [
      "ORIGINAL",
      "PRIMARY",
      "M",
      "ND",
      "NORM",
      "MOSAIC"
    ],
    "InPlanePhaseEncodingDirectionDICOM": "COL",
    "InstitutionAddress": "Scott_Ave._4525_St._Louis_MO_US_63110",
    "InstitutionName": "Washington_University",
    "InstitutionalDepartmentName": "Department",
    "MRAcquisitionType": "2D",
    "MagneticFieldStrength": 3,
    "Manufacturer": "Siemens",
    "ManufacturersModelName": "TrioTim",
    "Modality": "MR",
    "PartialFourier": 1,
    "PatientPosition": "HFS",
    "PercentPhaseFOV": 100,
    "PhaseEncodingDirection": "j-",
    "PhaseEncodingSteps": 64,
    "PhaseResolution": 1,
    "PixelBandwidth": 1905,
    "ProcedureStepDescription": "head_GREENE",
    "ProtocolName": "ep2d_bold_nonad_movie_3A",
    "PulseSequenceDetails": "%SiemensSeq%_ep2d_bold",
    "ReceiveCoilName": "HeadMatrix",
    "ReconMatrixPE": 64,
    "RepetitionTime": 2.5,
    "SAR": 0.14361,
    "ScanOptions": "FS",
    "ScanningSequence": "EP",
    "SequenceName": "_epfid2d1_64",
    "SequenceVariant": "SK",
    "SeriesDescription": "ep2d_bold_nonad_movie_3A",
    "SeriesNumber": 9,
    "ShimSetting": [
      -247,
      -19573,
      8096,
      439,
      162,
      -14,
      187,
      18
    ],
    "SliceThickness": 4,
    "SliceTiming": [
      1.255,
      0,
      1.335,
      0.08,
      1.4125,
      0.1575,
      1.4925,
      0.2375,
      1.57,
      0.315,
      1.6475,
      0.3925,
      1.7275,
      0.4725,
      1.805,
      0.55,
      1.8825,
      0.6275,
      1.9625,
      0.7075,
      2.04,
      0.785,
      2.1175,
      0.865,
      2.1975,
      0.9425,
      2.275,
      1.02,
      2.355,
      1.1,
      2.4325,
      1.1775
    ],
    "SoftwareVersions": "syngo_MR_B17",
    "SpacingBetweenSlices": 4,
    "StationName": "MRC35177",
    "TaskName": "restmoviefixed",
    "TotalReadoutTime": 0.0371701,
    "TxRefAmp": 353.169,
    "dataset": "ds000256",
    "dcmmeta_affine": [
      [
        -3.9870388507843018,
        0.04523400589823723,
        -0.3185509741306305,
        131.1153564453125
      ],
      [
        0.0021606453228741884,
        3.963947057723999,
        0.5358344316482544,
        -132.8964385986328
      ],
      [
        -0.3217393457889557,
        -0.5339261889457703,
        3.95112681388855,
        16.24079132080078
      ],
      [
        0.0,
        0.0,
        0.0,
        1.0
      ]
    ],
    "dcmmeta_reorient_transform": [
      [
        0.0,
        -1.0,
        0.0,
        63.0
      ],
      [
        1.0,
        0.0,
        0.0,
        0.0
      ],
      [
        0.0,
        0.0,
        1.0,
        0.0
      ],
      [
        0.0,
        0.0,
        0.0,
        1.0
      ]
    ],
    "dcmmeta_shape": [
      64,
      64,
      32,
      164
    ],
    "dcmmeta_slice_dim": 2,
    "dcmmeta_version": 0.6,
    "global": {
      "const": {
        "AccessionNumber": ".",
        "AcquisitionMatrix": [
          64,
          0,
          0,
          64
        ],
        "AngioFlag": "N",
        "BitsAllocated": 16,
        "BitsStored": 12,
        "BodyPartExamined": "HEAD",
        "Columns": 384,
        "DeidentificationMethodCodeSequence": [
          {
            "CodeMeaning": "XNAT Edit Script",
            "CodeValue": "625500",
            "CodingSchemeDesignator": "XNAT",
            "CodingSchemeVersion": "0.1"
          }
        ],
        "EchoNumbers": 1,
        "EchoTime": 27.0,
        "EchoTrainLength": 1,
        "FlipAngle": 90.0,
        "HighBit": 11,
        "ImageOrientationPatient": [
          0.99675972300084,
          -0.0005401613117,
          -0.0804348359173,
          0.01130850126388,
          0.99098677889418,
          0.13348154125612
        ],
        "ImagePositionPatient": [
          -779.12876022227,
          -750.71807031936,
          -51.346447573438
        ],
        "ImageType": [
          "ORIGINAL",
          "PRIMARY",
          "M",
          "ND",
          "NORM",
          "MOSAIC"
        ],
        "ImagedNucleus": "1H",
        "ImagingFrequency": 123.25585,
        "InPlanePhaseEncodingDirection": "COL",
        "MRAcquisitionType": "2D",
        "MagneticFieldStrength": 3.0,
        "Manufacturer": "SIEMENS",
        "ManufacturerModelName": "TrioTim",
        "Modality": "MR",
        "NumberOfAverages": 1.0,
        "NumberOfPhaseEncodingSteps": 64,
        "PercentPhaseFieldOfView": 100.0,
        "PercentSampling": 100.0,
        "PerformedProcedureStepStartTime": "133015.734000",
        "PhotometricInterpretation": "MONOCHROME2",
        "PixelBandwidth": 1905.0,
        "PixelRepresentation": 0,
        "PixelSpacing": [
          4.0,
          4.0
        ],
        "PositionReferenceIndicator": "",
        "ProtocolName": "ep2d_bold_nonad_movie_3A",
        "RepetitionTime": 2500.0,
        "Rows": 384,
        "SAR": 0.14361029609994,
        "SamplesPerPixel": 1,
        "ScanOptions": "FS",
        "ScanningSequence": "EP",
        "SequenceName": "*epfid2d1_64",
        "SequenceVariant": "SK",
        "SeriesDescription": "ep2d_bold_nonad_movie_3A",
        "SeriesNumber": 9,
        "SeriesTime": "141218.250000",
        "SliceLocation": -12.201996535739,
        "SliceThickness": 4.0,
        "SmallestImagePixelValue": 0,
        "SoftwareVersions": "syngo MR B17",
        "SpacingBetweenSlices": 3.9999994256337,
        "SpecificCharacterSet": "ISO_IR 100",
        "StudyID": "1",
        "StudyTime": "133015.687000",
        "TransmitCoilName": "Body",
        "VariableFlipAngleFlag": "N",
        "WindowCenterWidthExplanation": "Algo1",
        "dBdt": 0.0
      },
      "slices": {}
    },
    "modality": "bold",
    "subject_id": "CTS208",
    "task_id": "restmoviefixed",
    "time": {
      "samples": {
        "AcquisitionNumber": [
          1,
          2,
          3,
          4,
          5,
          6,
          7,
          8,
          9,
          10,
          11,
          12,
          13,
          14,
          15,
          16,
          17,
          18,
          19,
          20,
          21,
          22,
          23,
          24,
          25,
          26,
          27,
          28,
          29,
          30,
          31,
          32,
          33,
          34,
          35,
          36,
          37,
          38,
          39,
          40,
          41,
          42,
          43,
          44,
          45,
          46,
          47,
          48,
          49,
          50,
          51,
          52,
          53,
          54,
          55,
          56,
          57,
          58,
          59,
          60,
          61,
          62,
          63,
          64,
          65,
          66,
          67,
          68,
          69,
          70,
          71,
          72,
          73,
          74,
          75,
          76,
          77,
          78,
          79,
          80,
          81,
          82,
          83,
          84,
          85,
          86,
          87,
          88,
          89,
          90,
          91,
          92,
          93,
          94,
          95,
          96,
          97,
          98,
          99,
          100,
          101,
          102,
          103,
          104,
          105,
          106,
          107,
          108,
          109,
          110,
          111,
          112,
          113,
          114,
          115,
          116,
          117,
          118,
          119,
          120,
          121,
          122,
          123,
          124,
          125,
          126,
          127,
          128,
          129,
          130,
          131,
          132,
          133,
          134,
          135,
          136,
          137,
          138,
          139,
          140,
          141,
          142,
          143,
          144,
          145,
          146,
          147,
          148,
          149,
          150,
          151,
          152,
          153,
          154,
          155,
          156,
          157,
          158,
          159,
          160,
          161,
          162,
          163,
          164
        ],
        "AcquisitionTime": [
          "141215.490000",
          "141218.000000",
          "141220.510000",
          "141223.020000",
          "141225.530000",
          "141228.040000",
          "141230.550000",
          "141233.062500",
          "141235.572500",
          "141238.082500",
          "141240.592500",
          "141243.102500",
          "141245.612500",
          "141248.122500",
          "141250.632500",
          "141253.142500",
          "141255.652500",
          "141258.162500",
          "141300.672500",
          "141303.182500",
          "141305.692500",
          "141308.202500",
          "141310.712500",
          "141313.222500",
          "141315.732500",
          "141318.242500",
          "141320.752500",
          "141323.262500",
          "141325.772500",
          "141328.282500",
          "141330.792500",
          "141333.302500",
          "141335.812500",
          "141338.322500",
          "141340.832500",
          "141343.342500",
          "141345.852500",
          "141348.362500",
          "141350.872500",
          "141353.382500",
          "141355.892500",
          "141358.402500",
          "141400.912500",
          "141403.422500",
          "141405.932500",
          "141408.442500",
          "141410.952500",
          "141413.462500",
          "141415.972500",
          "141418.482500",
          "141420.992500",
          "141423.502500",
          "141426.012500",
          "141428.522500",
          "141431.032500",
          "141433.542500",
          "141436.052500",
          "141438.562500",
          "141441.072500",
          "141443.582500",
          "141446.092500",
          "141448.602500",
          "141451.112500",
          "141453.622500",
          "141456.132500",
          "141458.642500",
          "141501.152500",
          "141503.662500",
          "141506.172500",
          "141508.685000",
          "141511.195000",
          "141513.705000",
          "141516.215000",
          "141518.725000",
          "141521.235000",
          "141523.745000",
          "141526.255000",
          "141528.765000",
          "141531.275000",
          "141533.785000",
          "141536.295000",
          "141538.805000",
          "141541.315000",
          "141543.825000",
          "141546.335000",
          "141548.845000",
          "141551.355000",
          "141553.865000",
          "141556.375000",
          "141558.885000",
          "141601.395000",
          "141603.905000",
          "141606.415000",
          "141608.925000",
          "141611.435000",
          "141613.945000",
          "141616.455000",
          "141618.965000",
          "141621.475000",
          "141623.985000",
          "141626.495000",
          "141629.005000",
          "141631.515000",
          "141634.025000",
          "141636.535000",
          "141639.045000",
          "141641.555000",
          "141644.065000",
          "141646.575000",
          "141649.085000",
          "141651.595000",
          "141654.105000",
          "141656.615000",
          "141659.125000",
          "141701.635000",
          "141704.145000",
          "141706.655000",
          "141709.165000",
          "141711.675000",
          "141714.185000",
          "141716.695000",
          "141719.205000",
          "141721.715000",
          "141724.225000",
          "141726.735000",
          "141729.245000",
          "141731.755000",
          "141734.265000",
          "141736.775000",
          "141739.285000",
          "141741.795000",
          "141744.307500",
          "141746.817500",
          "141749.327500",
          "141751.837500",
          "141754.347500",
          "141756.857500",
          "141759.367500",
          "141801.877500",
          "141804.387500",
          "141806.897500",
          "141809.407500",
          "141811.917500",
          "141814.427500",
          "141816.937500",
          "141819.447500",
          "141821.957500",
          "141824.467500",
          "141826.977500",
          "141829.487500",
          "141831.997500",
          "141834.507500",
          "141837.017500",
          "141839.527500",
          "141842.037500",
          "141844.547500",
          "141847.057500",
          "141849.567500",
          "141852.077500",
          "141854.587500",
          "141857.097500",
          "141859.607500",
          "141902.117500",
          "141904.627500"
        ],
        "ContentTime": [
          "141218.265000",
          "141220.750000",
          "141223.250000",
          "141225.750000",
          "141228.250000",
          "141230.750000",
          "141233.250000",
          "141235.750000",
          "141238.250000",
          "141240.750000",
          "141243.250000",
          "141245.750000",
          "141248.250000",
          "141250.750000",
          "141253.250000",
          "141255.750000",
          "141258.250000",
          "141300.750000",
          "141303.250000",
          "141305.750000",
          "141308.250000",
          "141310.750000",
          "141313.250000",
          "141315.750000",
          "141318.250000",
          "141320.750000",
          "141323.250000",
          "141325.750000",
          "141328.250000",
          "141330.750000",
          "141333.250000",
          "141335.750000",
          "141338.250000",
          "141340.750000",
          "141343.250000",
          "141345.750000",
          "141348.250000",
          "141350.750000",
          "141353.250000",
          "141355.750000",
          "141358.250000",
          "141400.750000",
          "141403.250000",
          "141405.750000",
          "141408.250000",
          "141410.750000",
          "141413.250000",
          "141415.750000",
          "141418.265000",
          "141420.750000",
          "141423.250000",
          "141425.750000",
          "141428.250000",
          "141430.750000",
          "141433.250000",
          "141435.750000",
          "141438.250000",
          "141440.750000",
          "141443.250000",
          "141445.750000",
          "141448.250000",
          "141450.750000",
          "141453.250000",
          "141455.750000",
          "141458.250000",
          "141500.750000",
          "141503.250000",
          "141505.750000",
          "141508.250000",
          "141510.750000",
          "141513.250000",
          "141515.750000",
          "141518.250000",
          "141520.750000",
          "141523.250000",
          "141525.750000",
          "141528.250000",
          "141530.750000",
          "141533.250000",
          "141535.750000",
          "141538.250000",
          "141540.750000",
          "141543.250000",
          "141545.750000",
          "141548.250000",
          "141550.750000",
          "141553.250000",
          "141555.750000",
          "141558.250000",
          "141600.750000",
          "141603.250000",
          "141605.750000",
          "141608.250000",
          "141610.750000",
          "141613.250000",
          "141615.750000",
          "141618.250000",
          "141620.750000",
          "141623.250000",
          "141625.750000",
          "141628.250000",
          "141630.750000",
          "141633.250000",
          "141635.750000",
          "141638.250000",
          "141640.750000",
          "141643.250000",
          "141645.750000",
          "141648.250000",
          "141650.750000",
          "141653.250000",
          "141655.750000",
          "141658.250000",
          "141700.750000",
          "141703.250000",
          "141705.750000",
          "141708.250000",
          "141710.750000",
          "141713.250000",
          "141715.750000",
          "141718.250000",
          "141720.750000",
          "141723.250000",
          "141725.750000",
          "141728.250000",
          "141730.750000",
          "141733.250000",
          "141735.750000",
          "141738.250000",
          "141740.750000",
          "141743.250000",
          "141745.750000",
          "141748.250000",
          "141750.750000",
          "141753.250000",
          "141755.750000",
          "141758.250000",
          "141800.750000",
          "141803.250000",
          "141805.750000",
          "141808.250000",
          "141810.750000",
          "141813.250000",
          "141815.750000",
          "141818.250000",
          "141820.750000",
          "141823.250000",
          "141825.750000",
          "141828.250000",
          "141830.750000",
          "141833.250000",
          "141835.750000",
          "141838.250000",
          "141840.750000",
          "141843.250000",
          "141845.750000",
          "141848.250000",
          "141850.750000",
          "141853.250000",
          "141855.750000",
          "141858.250000",
          "141900.750000",
          "141903.250000",
          "141905.453000"
        ],
        "InstanceCreationTime": [
          "141218.265000",
          "141220.750000",
          "141223.250000",
          "141225.750000",
          "141228.250000",
          "141230.750000",
          "141233.250000",
          "141235.750000",
          "141238.250000",
          "141240.750000",
          "141243.250000",
          "141245.750000",
          "141248.250000",
          "141250.750000",
          "141253.250000",
          "141255.750000",
          "141258.250000",
          "141300.750000",
          "141303.250000",
          "141305.750000",
          "141308.250000",
          "141310.750000",
          "141313.250000",
          "141315.750000",
          "141318.250000",
          "141320.750000",
          "141323.250000",
          "141325.750000",
          "141328.250000",
          "141330.750000",
          "141333.250000",
          "141335.750000",
          "141338.250000",
          "141340.750000",
          "141343.250000",
          "141345.750000",
          "141348.250000",
          "141350.750000",
          "141353.250000",
          "141355.750000",
          "141358.250000",
          "141400.750000",
          "141403.250000",
          "141405.750000",
          "141408.250000",
          "141410.750000",
          "141413.250000",
          "141415.750000",
          "141418.265000",
          "141420.750000",
          "141423.250000",
          "141425.750000",
          "141428.250000",
          "141430.750000",
          "141433.250000",
          "141435.750000",
          "141438.250000",
          "141440.750000",
          "141443.250000",
          "141445.750000",
          "141448.250000",
          "141450.750000",
          "141453.250000",
          "141455.750000",
          "141458.250000",
          "141500.750000",
          "141503.250000",
          "141505.750000",
          "141508.250000",
          "141510.750000",
          "141513.250000",
          "141515.750000",
          "141518.250000",
          "141520.750000",
          "141523.250000",
          "141525.750000",
          "141528.250000",
          "141530.750000",
          "141533.250000",
          "141535.750000",
          "141538.250000",
          "141540.750000",
          "141543.250000",
          "141545.750000",
          "141548.250000",
          "141550.750000",
          "141553.250000",
          "141555.750000",
          "141558.250000",
          "141600.750000",
          "141603.250000",
          "141605.750000",
          "141608.250000",
          "141610.750000",
          "141613.250000",
          "141615.750000",
          "141618.250000",
          "141620.750000",
          "141623.250000",
          "141625.750000",
          "141628.250000",
          "141630.750000",
          "141633.250000",
          "141635.750000",
          "141638.250000",
          "141640.750000",
          "141643.250000",
          "141645.750000",
          "141648.250000",
          "141650.750000",
          "141653.250000",
          "141655.750000",
          "141658.250000",
          "141700.750000",
          "141703.250000",
          "141705.750000",
          "141708.250000",
          "141710.750000",
          "141713.250000",
          "141715.750000",
          "141718.250000",
          "141720.750000",
          "141723.250000",
          "141725.750000",
          "141728.250000",
          "141730.750000",
          "141733.250000",
          "141735.750000",
          "141738.250000",
          "141740.750000",
          "141743.250000",
          "141745.750000",
          "141748.250000",
          "141750.750000",
          "141753.250000",
          "141755.750000",
          "141758.250000",
          "141800.750000",
          "141803.250000",
          "141805.750000",
          "141808.250000",
          "141810.750000",
          "141813.250000",
          "141815.750000",
          "141818.250000",
          "141820.750000",
          "141823.250000",
          "141825.750000",
          "141828.250000",
          "141830.750000",
          "141833.250000",
          "141835.750000",
          "141838.250000",
          "141840.750000",
          "141843.250000",
          "141845.750000",
          "141848.250000",
          "141850.750000",
          "141853.250000",
          "141855.750000",
          "141858.250000",
          "141900.750000",
          "141903.250000",
          "141905.453000"
        ],
        "InstanceNumber": [
          1,
          2,
          3,
          4,
          5,
          6,
          7,
          8,
          9,
          10,
          11,
          12,
          13,
          14,
          15,
          16,
          17,
          18,
          19,
          20,
          21,
          22,
          23,
          24,
          25,
          26,
          27,
          28,
          29,
          30,
          31,
          32,
          33,
          34,
          35,
          36,
          37,
          38,
          39,
          40,
          41,
          42,
          43,
          44,
          45,
          46,
          47,
          48,
          49,
          50,
          51,
          52,
          53,
          54,
          55,
          56,
          57,
          58,
          59,
          60,
          61,
          62,
          63,
          64,
          65,
          66,
          67,
          68,
          69,
          70,
          71,
          72,
          73,
          74,
          75,
          76,
          77,
          78,
          79,
          80,
          81,
          82,
          83,
          84,
          85,
          86,
          87,
          88,
          89,
          90,
          91,
          92,
          93,
          94,
          95,
          96,
          97,
          98,
          99,
          100,
          101,
          102,
          103,
          104,
          105,
          106,
          107,
          108,
          109,
          110,
          111,
          112,
          113,
          114,
          115,
          116,
          117,
          118,
          119,
          120,
          121,
          122,
          123,
          124,
          125,
          126,
          127,
          128,
          129,
          130,
          131,
          132,
          133,
          134,
          135,
          136,
          137,
          138,
          139,
          140,
          141,
          142,
          143,
          144,
          145,
          146,
          147,
          148,
          149,
          150,
          151,
          152,
          153,
          154,
          155,
          156,
          157,
          158,
          159,
          160,
          161,
          162,
          163,
          164
        ],
        "LargestImagePixelValue": [
          1327,
          1172,
          1200,
          1218,
          1236,
          1232,
          1233,
          1166,
          1269,
          1213,
          1167,
          1255,
          1258,
          1216,
          1337,
          1204,
          1403,
          1200,
          1280,
          1156,
          1218,
          1498,
          1254,
          1227,
          1184,
          1294,
          1162,
          1307,
          1254,
          1204,
          1186,
          1159,
          1243,
          1135,
          1279,
          1254,
          1374,
          1392,
          1176,
          1223,
          1297,
          1404,
          1285,
          1317,
          1165,
          1232,
          1212,
          1146,
          1149,
          1171,
          1172,
          1219,
          1330,
          1330,
          1289,
          1189,
          1241,
          1239,
          1302,
          1283,
          1307,
          1215,
          1209,
          1253,
          1205,
          1207,
          1335,
          1232,
          1371,
          1405,
          1282,
          1174,
          1289,
          1308,
          1345,
          1214,
          1152,
          1327,
          1269,
          1278,
          1171,
          1159,
          1400,
          1402,
          1209,
          1250,
          1212,
          1168,
          1236,
          1178,
          1207,
          1209,
          1298,
          1188,
          1263,
          1363,
          1394,
          1240,
          1174,
          1155,
          1197,
          1164,
          1158,
          1548,
          1447,
          1236,
          1263,
          1502,
          1248,
          1191,
          1174,
          1213,
          1175,
          1159,
          1210,
          1193,
          1273,
          1321,
          1174,
          1253,
          1262,
          1322,
          1506,
          1234,
          1301,
          1249,
          1234,
          1182,
          1146,
          1196,
          1224,
          1216,
          1198,
          1248,
          1137,
          1180,
          1224,
          1271,
          1210,
          1154,
          1295,
          1235,
          1340,
          1212,
          1214,
          1175,
          1435,
          1194,
          1228,
          1369,
          1176,
          1256,
          1625,
          1456,
          1168,
          1185,
          1296,
          1332,
          1438,
          1263,
          1611,
          1197,
          1178,
          1457
        ],
        "WindowCenter": [
          597.0,
          596.0,
          598.0,
          599.0,
          599.0,
          599.0,
          599.0,
          599.0,
          599.0,
          599.0,
          601.0,
          600.0,
          599.0,
          599.0,
          599.0,
          597.0,
          596.0,
          599.0,
          600.0,
          600.0,
          600.0,
          598.0,
          598.0,
          597.0,
          597.0,
          597.0,
          598.0,
          598.0,
          598.0,
          599.0,
          598.0,
          597.0,
          598.0,
          598.0,
          598.0,
          598.0,
          598.0,
          599.0,
          600.0,
          600.0,
          599.0,
          598.0,
          595.0,
          597.0,
          597.0,
          599.0,
          599.0,
          599.0,
          599.0,
          599.0,
          599.0,
          598.0,
          598.0,
          597.0,
          598.0,
          598.0,
          598.0,
          600.0,
          600.0,
          599.0,
          598.0,
          599.0,
          598.0,
          598.0,
          598.0,
          599.0,
          601.0,
          599.0,
          599.0,
          598.0,
          599.0,
          600.0,
          599.0,
          598.0,
          599.0,
          599.0,
          597.0,
          598.0,
          598.0,
          598.0,
          597.0,
          598.0,
          598.0,
          598.0,
          597.0,
          598.0,
          597.0,
          597.0,
          597.0,
          597.0,
          597.0,
          599.0,
          599.0,
          599.0,
          599.0,
          599.0,
          598.0,
          598.0,
          597.0,
          597.0,
          596.0,
          599.0,
          598.0,
          600.0,
          599.0,
          597.0,
          597.0,
          597.0,
          598.0,
          597.0,
          596.0,
          596.0,
          597.0,
          598.0,
          599.0,
          599.0,
          598.0,
          599.0,
          598.0,
          599.0,
          598.0,
          598.0,
          599.0,
          598.0,
          598.0,
          598.0,
          599.0,
          599.0,
          599.0,
          599.0,
          599.0,
          599.0,
          597.0,
          598.0,
          598.0,
          599.0,
          598.0,
          596.0,
          598.0,
          597.0,
          596.0,
          597.0,
          598.0,
          598.0,
          597.0,
          597.0,
          600.0,
          583.0,
          601.0,
