{
  "aor": 0.052225975609756094,
  "aqi": 0.11255918109756098,
  "bids_meta": {
    "AcquisitionMatrixPE": 64,
    "AcquisitionNumber": 1,
    "AcquisitionTime": "14:05:37.732500",
    "BandwidthPerPixelPhaseEncode": 26.483,
    "BaseResolution": 64,
    "BodyPartExamined": "HEAD",
    "CogAtlasID": "TODO",
    "ConversionSoftware": "dcm2niix",
    "ConversionSoftwareVersion": "v1.0.20171017 GCC6.3.0",
    "DerivedVendorReportedEchoSpacing": 0.000590001,
    "DeviceSerialNumber": "35177",
    "DwellTime": 4.1e-06,
    "EchoTime": 0.027,
    "EffectiveEchoSpacing": 0.000590001,
    "FlipAngle": 90,
    "ImageOrientationPatientDICOM": [
      0.996669,
      -0.0739124,
      -0.0344799,
      0.0789644,
      0.980276,
      0.181174
    ],
    "ImageType": [
      "ORIGINAL",
      "PRIMARY",
      "M",
      "ND",
      "NORM",
      "MOSAIC"
    ],
    "InPlanePhaseEncodingDirectionDICOM": "COL",
    "InstitutionAddress": "Scott_Ave._4525_St._Louis_MO_US_63110",
    "InstitutionName": "Washington_University",
    "InstitutionalDepartmentName": "Department",
    "MRAcquisitionType": "2D",
    "MagneticFieldStrength": 3,
    "Manufacturer": "Siemens",
    "ManufacturersModelName": "TrioTim",
    "Modality": "MR",
    "PartialFourier": 1,
    "PatientPosition": "HFS",
    "PercentPhaseFOV": 100,
    "PhaseEncodingDirection": "j-",
    "PhaseEncodingSteps": 64,
    "PhaseResolution": 1,
    "PixelBandwidth": 1905,
    "ProcedureStepDescription": "head_GREENE",
    "ProtocolName": "ep2d_bold_movie_2A",
    "PulseSequenceDetails": "%SiemensSeq%_ep2d_bold",
    "ReceiveCoilName": "HeadMatrix",
    "ReconMatrixPE": 64,
    "RepetitionTime": 2.5,
    "SAR": 0.162988,
    "ScanOptions": "FS",
    "ScanningSequence": "EP",
    "SequenceName": "_epfid2d1_64",
    "SequenceVariant": "SK",
    "SeriesDescription": "ep2d_bold_movie_2A",
    "SeriesNumber": 11,
    "ShimSetting": [
      -224,
      -19688,
      7998,
      280,
      88,
      -552,
      173,
      -28
    ],
    "SliceThickness": 4,
    "SliceTiming": [
      1.255,
      0,
      1.3325,
      0.0775,
      1.41,
      0.1575,
      1.49,
      0.235,
      1.5675,
      0.3125,
      1.6475,
      0.3925,
      1.725,
      0.47,
      1.8025,
      0.5475,
      1.8825,
      0.6275,
      1.96,
      0.705,
      2.0375,
      0.7825,
      2.1175,
      0.8625,
      2.195,
      0.94,
      2.275,
      1.02,
      2.3525,
      1.0975,
      2.43,
      1.175
    ],
    "SoftwareVersions": "syngo_MR_B17",
    "SpacingBetweenSlices": 4,
    "StationName": "MRC35177",
    "TaskName": "restmovieadaptive",
    "TotalReadoutTime": 0.0371701,
    "TxRefAmp": 341.225,
    "dataset": "ds000256",
    "dcmmeta_affine": [
      [
        -3.9866740703582764,
        0.31585779786109924,
        -0.08163540065288544,
        118.20162200927734
      ],
      [
        0.29564952850341797,
        3.9211032390594482,
        0.7331713438034058,
        -137.3347625732422
      ],
      [
        -0.13791970908641815,
        -0.724695086479187,
        3.931384801864624,
        12.10462760925293
      ],
      [
        0.0,
        0.0,
        0.0,
        1.0
      ]
    ],
    "dcmmeta_reorient_transform": [
      [
        0.0,
        -1.0,
        0.0,
        63.0
      ],
      [
        1.0,
        0.0,
        0.0,
        0.0
      ],
      [
        0.0,
        0.0,
        1.0,
        0.0
      ],
      [
        0.0,
        0.0,
        0.0,
        1.0
      ]
    ],
    "dcmmeta_shape": [
      64,
      64,
      32,
      164
    ],
    "dcmmeta_slice_dim": 2,
    "dcmmeta_version": 0.6,
    "global": {
      "const": {
        "AccessionNumber": ".",
        "AcquisitionMatrix": [
          64,
          0,
          0,
          64
        ],
        "AngioFlag": "N",
        "BitsAllocated": 16,
        "BitsStored": 12,
        "BodyPartExamined": "HEAD",
        "Columns": 384,
        "DeidentificationMethodCodeSequence": [
          {
            "CodeMeaning": "XNAT Edit Script",
            "CodeValue": "625500",
            "CodingSchemeDesignator": "XNAT",
            "CodingSchemeVersion": "0.1"
          }
        ],
        "EchoNumbers": 1,
        "EchoTime": 27.0,
        "EchoTrainLength": 1,
        "FlipAngle": 90.0,
        "HighBit": 11,
        "ImageOrientationPatient": [
          0.99666849744438,
          -0.0739123853866,
          -0.0344799287763,
          0.07896445310687,
          0.98027581784614,
          0.18117377318918
        ],
        "ImagePositionPatient": [
          -826.50575073676,
          -689.76734531591,
          -127.43522362908
        ],
        "ImageType": [
          "ORIGINAL",
          "PRIMARY",
          "M",
          "ND",
          "NORM",
          "MOSAIC"
        ],
        "ImagedNucleus": "1H",
        "ImagingFrequency": 123.255762,
        "InPlanePhaseEncodingDirection": "COL",
        "MRAcquisitionType": "2D",
        "MagneticFieldStrength": 3.0,
        "Manufacturer": "SIEMENS",
        "ManufacturerModelName": "TrioTim",
        "Modality": "MR",
        "NumberOfAverages": 1.0,
        "NumberOfPhaseEncodingSteps": 64,
        "PercentPhaseFieldOfView": 100.0,
        "PercentSampling": 100.0,
        "PerformedProcedureStepStartTime": "131250.515000",
        "PhotometricInterpretation": "MONOCHROME2",
        "PixelBandwidth": 1905.0,
        "PixelRepresentation": 0,
        "PixelSpacing": [
          4.0,
          4.0
        ],
        "PositionReferenceIndicator": "",
        "ProtocolName": "ep2d_bold_movie_2A",
        "RepetitionTime": 2500.0,
        "Rows": 384,
        "SAR": 0.16298810237477,
        "SamplesPerPixel": 1,
        "ScanOptions": "FS",
        "ScanningSequence": "EP",
        "SequenceName": "*epfid2d1_64",
        "SequenceVariant": "SK",
        "SeriesDescription": "ep2d_bold_movie_2A",
        "SeriesNumber": 11,
        "SeriesTime": "140540.218000",
        "SliceLocation": -15.687852423932,
        "SliceThickness": 4.0,
        "SmallestImagePixelValue": 0,
        "SoftwareVersions": "syngo MR B17",
        "SpacingBetweenSlices": 3.9999989422209,
        "SpecificCharacterSet": "ISO_IR 100",
        "StudyID": "1",
        "StudyTime": "131250.484000",
        "TransmitCoilName": "Body",
        "VariableFlipAngleFlag": "N",
        "WindowCenterWidthExplanation": "Algo1",
        "dBdt": 0.0
      },
      "slices": {}
    },
    "modality": "bold",
    "subject_id": "CTS203",
    "task_id": "restmovieadaptive",
    "time": {
      "samples": {
        "AcquisitionNumber": [
          1,
          2,
          3,
          4,
          5,
          6,
          7,
          8,
          9,
          10,
          11,
          12,
          13,
          14,
          15,
          16,
          17,
          18,
          19,
          20,
          21,
          22,
          23,
          24,
          25,
          26,
          27,
          28,
          29,
          30,
          31,
          32,
          33,
          34,
          35,
          36,
          37,
          38,
          39,
          40,
          41,
          42,
          43,
          44,
          45,
          46,
          47,
          48,
          49,
          50,
          51,
          52,
          53,
          54,
          55,
          56,
          57,
          58,
          59,
          60,
          61,
          62,
          63,
          64,
          65,
          66,
          67,
          68,
          69,
          70,
          71,
          72,
          73,
          74,
          75,
          76,
          77,
          78,
          79,
          80,
          81,
          82,
          83,
          84,
          85,
          86,
          87,
          88,
          89,
          90,
          91,
          92,
          93,
          94,
          95,
          96,
          97,
          98,
          99,
          100,
          101,
          102,
          103,
          104,
          105,
          106,
          107,
          108,
          109,
          110,
          111,
          112,
          113,
          114,
          115,
          116,
          117,
          118,
          119,
          120,
          121,
          122,
          123,
          124,
          125,
          126,
          127,
          128,
          129,
          130,
          131,
          132,
          133,
          134,
          135,
          136,
          137,
          138,
          139,
          140,
          141,
          142,
          143,
          144,
          145,
          146,
          147,
          148,
          149,
          150,
          151,
          152,
          153,
          154,
          155,
          156,
          157,
          158,
          159,
          160,
          161,
          162,
          163,
          164
        ],
        "AcquisitionTime": [
          "140537.732500",
          "140540.242500",
          "140542.752500",
          "140545.262500",
          "140547.772500",
          "140550.282500",
          "140552.792500",
          "140555.302500",
          "140557.812500",
          "140600.322500",
          "140602.832500",
          "140605.342500",
          "140607.852500",
          "140610.362500",
          "140612.872500",
          "140615.382500",
          "140617.892500",
          "140620.402500",
          "140622.912500",
          "140625.422500",
          "140627.932500",
          "140630.442500",
          "140632.952500",
          "140635.462500",
          "140637.972500",
          "140640.482500",
          "140642.992500",
          "140645.502500",
          "140648.012500",
          "140650.522500",
          "140653.032500",
          "140655.542500",
          "140658.052500",
          "140700.562500",
          "140703.072500",
          "140705.582500",
          "140708.092500",
          "140710.602500",
          "140713.112500",
          "140715.622500",
          "140718.132500",
          "140720.642500",
          "140723.152500",
          "140725.662500",
          "140728.172500",
          "140730.682500",
          "140733.192500",
          "140735.702500",
          "140738.212500",
          "140740.725000",
          "140743.235000",
          "140745.745000",
          "140748.255000",
          "140750.765000",
          "140753.275000",
          "140755.785000",
          "140758.295000",
          "140800.805000",
          "140803.315000",
          "140805.825000",
          "140808.335000",
          "140810.845000",
          "140813.355000",
          "140815.865000",
          "140818.375000",
          "140820.885000",
          "140823.395000",
          "140825.905000",
          "140828.415000",
          "140830.925000",
          "140833.435000",
          "140835.945000",
          "140838.455000",
          "140840.965000",
          "140843.475000",
          "140845.985000",
          "140848.495000",
          "140851.005000",
          "140853.515000",
          "140856.025000",
          "140858.535000",
          "140901.045000",
          "140903.555000",
          "140906.065000",
          "140908.575000",
          "140911.085000",
          "140913.595000",
          "140916.105000",
          "140918.615000",
          "140921.125000",
          "140923.635000",
          "140926.145000",
          "140928.655000",
          "140931.165000",
          "140933.675000",
          "140936.185000",
          "140938.695000",
          "140941.205000",
          "140943.715000",
          "140946.225000",
          "140948.735000",
          "140951.245000",
          "140953.755000",
          "140956.265000",
          "140958.775000",
          "141001.285000",
          "141003.795000",
          "141006.305000",
          "141008.815000",
          "141011.325000",
          "141013.835000",
          "141016.345000",
          "141018.857500",
          "141021.367500",
          "141023.877500",
          "141026.387500",
          "141028.897500",
          "141031.407500",
          "141033.917500",
          "141036.427500",
          "141038.937500",
          "141041.447500",
          "141043.957500",
          "141046.467500",
          "141048.977500",
          "141051.487500",
          "141053.997500",
          "141056.507500",
          "141059.017500",
          "141101.527500",
          "141104.037500",
          "141106.547500",
          "141109.057500",
          "141111.567500",
          "141114.077500",
          "141116.587500",
          "141119.097500",
          "141121.607500",
          "141124.117500",
          "141126.627500",
          "141129.137500",
          "141131.647500",
          "141134.157500",
          "141136.667500",
          "141139.177500",
          "141141.687500",
          "141144.197500",
          "141146.707500",
          "141149.217500",
          "141151.727500",
          "141154.237500",
          "141156.747500",
          "141159.257500",
          "141201.767500",
          "141204.277500",
          "141206.787500",
          "141209.297500",
          "141211.807500",
          "141214.317500",
          "141216.827500",
          "141219.337500",
          "141221.847500",
          "141224.357500",
          "141226.867500"
        ],
        "ContentTime": [
          "140540.218000",
          "140542.718000",
          "140545.218000",
          "140547.718000",
          "140550.218000",
          "140552.718000",
          "140555.218000",
          "140557.718000",
          "140600.218000",
          "140602.718000",
          "140605.218000",
          "140607.718000",
          "140610.218000",
          "140612.718000",
          "140615.218000",
          "140617.718000",
          "140620.218000",
          "140622.718000",
          "140625.218000",
          "140627.718000",
          "140630.218000",
          "140632.718000",
          "140635.218000",
          "140637.718000",
          "140640.218000",
          "140642.718000",
          "140645.218000",
          "140647.718000",
          "140650.218000",
          "140652.718000",
          "140655.218000",
          "140657.718000",
          "140700.218000",
          "140702.718000",
          "140705.218000",
          "140707.718000",
          "140710.218000",
          "140712.718000",
          "140715.218000",
          "140717.718000",
          "140720.218000",
          "140722.718000",
          "140725.218000",
          "140727.718000",
          "140730.218000",
          "140732.718000",
          "140735.218000",
          "140737.718000",
          "140740.218000",
          "140742.718000",
          "140745.218000",
          "140747.718000",
          "140750.218000",
          "140752.718000",
          "140755.218000",
          "140757.718000",
          "140800.218000",
          "140802.718000",
          "140805.218000",
          "140807.718000",
          "140810.218000",
          "140812.718000",
          "140815.218000",
          "140817.718000",
          "140820.218000",
          "140822.718000",
          "140825.218000",
          "140827.718000",
          "140830.218000",
          "140832.718000",
          "140835.218000",
          "140837.718000",
          "140840.218000",
          "140842.718000",
          "140845.218000",
          "140847.718000",
          "140850.218000",
          "140852.718000",
          "140855.218000",
          "140857.718000",
          "140900.218000",
          "140902.718000",
          "140905.218000",
          "140907.718000",
          "140910.218000",
          "140912.718000",
          "140915.218000",
          "140917.718000",
          "140920.218000",
          "140922.718000",
          "140925.218000",
          "140927.718000",
          "140930.218000",
          "140932.718000",
          "140935.218000",
          "140937.718000",
          "140940.218000",
          "140942.718000",
          "140945.218000",
          "140947.718000",
          "140950.218000",
          "140952.718000",
          "140955.218000",
          "140957.718000",
          "141000.218000",
          "141002.718000",
          "141005.218000",
          "141007.718000",
          "141010.218000",
          "141012.718000",
          "141015.218000",
          "141017.718000",
          "141020.218000",
          "141022.718000",
          "141025.218000",
          "141027.718000",
          "141030.218000",
          "141032.718000",
          "141035.218000",
          "141037.718000",
          "141040.218000",
          "141042.718000",
          "141045.218000",
          "141047.718000",
          "141050.218000",
          "141052.718000",
          "141055.218000",
          "141057.718000",
          "141100.218000",
          "141102.718000",
          "141105.218000",
          "141107.718000",
          "141110.218000",
          "141112.718000",
          "141115.218000",
          "141117.718000",
          "141120.218000",
          "141122.718000",
          "141125.218000",
          "141127.718000",
          "141130.218000",
          "141132.718000",
          "141135.218000",
          "141137.718000",
          "141140.218000",
          "141142.718000",
          "141145.218000",
          "141147.718000",
          "141150.218000",
          "141152.718000",
          "141155.218000",
          "141157.718000",
          "141200.218000",
          "141202.718000",
          "141205.218000",
          "141207.718000",
          "141210.218000",
          "141212.718000",
          "141215.218000",
          "141217.718000",
          "141220.218000",
          "141222.718000",
          "141225.218000",
          "141227.453000"
        ],
        "InstanceCreationTime": [
          "140540.218000",
          "140542.718000",
          "140545.218000",
          "140547.718000",
          "140550.218000",
          "140552.718000",
          "140555.218000",
          "140557.718000",
          "140600.218000",
          "140602.718000",
          "140605.218000",
          "140607.718000",
          "140610.218000",
          "140612.718000",
          "140615.218000",
          "140617.718000",
          "140620.218000",
          "140622.718000",
          "140625.218000",
          "140627.718000",
          "140630.218000",
          "140632.718000",
          "140635.218000",
          "140637.718000",
          "140640.218000",
          "140642.718000",
          "140645.218000",
          "140647.718000",
          "140650.218000",
          "140652.718000",
          "140655.218000",
          "140657.718000",
          "140700.218000",
          "140702.718000",
          "140705.218000",
          "140707.718000",
          "140710.218000",
          "140712.718000",
          "140715.218000",
          "140717.718000",
          "140720.218000",
          "140722.718000",
          "140725.218000",
          "140727.718000",
          "140730.218000",
          "140732.718000",
          "140735.218000",
          "140737.718000",
          "140740.218000",
          "140742.718000",
          "140745.218000",
          "140747.718000",
          "140750.218000",
          "140752.718000",
          "140755.218000",
          "140757.718000",
          "140800.218000",
          "140802.718000",
          "140805.218000",
          "140807.718000",
          "140810.218000",
          "140812.718000",
          "140815.218000",
          "140817.718000",
          "140820.218000",
          "140822.718000",
          "140825.218000",
          "140827.718000",
          "140830.218000",
          "140832.718000",
          "140835.218000",
          "140837.718000",
          "140840.218000",
          "140842.718000",
          "140845.218000",
          "140847.718000",
          "140850.218000",
          "140852.718000",
          "140855.218000",
          "140857.718000",
          "140900.218000",
          "140902.718000",
          "140905.218000",
          "140907.718000",
          "140910.218000",
          "140912.718000",
          "140915.218000",
          "140917.718000",
          "140920.218000",
          "140922.718000",
          "140925.218000",
          "140927.718000",
          "140930.218000",
          "140932.718000",
          "140935.218000",
          "140937.718000",
          "140940.218000",
          "140942.718000",
          "140945.218000",
          "140947.718000",
          "140950.218000",
          "140952.718000",
          "140955.218000",
          "140957.718000",
          "141000.218000",
          "141002.718000",
          "141005.218000",
          "141007.718000",
          "141010.218000",
          "141012.718000",
          "141015.218000",
          "141017.718000",
          "141020.218000",
          "141022.718000",
          "141025.218000",
          "141027.718000",
          "141030.218000",
          "141032.718000",
          "141035.218000",
          "141037.718000",
          "141040.218000",
          "141042.718000",
          "141045.218000",
          "141047.718000",
          "141050.218000",
          "141052.718000",
          "141055.218000",
          "141057.718000",
          "141100.218000",
          "141102.718000",
          "141105.218000",
          "141107.718000",
          "141110.218000",
          "141112.718000",
          "141115.218000",
          "141117.718000",
          "141120.218000",
          "141122.718000",
          "141125.218000",
          "141127.718000",
          "141130.218000",
          "141132.718000",
          "141135.218000",
          "141137.718000",
          "141140.218000",
          "141142.718000",
          "141145.218000",
          "141147.718000",
          "141150.218000",
          "141152.718000",
          "141155.218000",
          "141157.718000",
          "141200.218000",
          "141202.718000",
          "141205.218000",
          "141207.718000",
          "141210.218000",
          "141212.718000",
          "141215.218000",
          "141217.718000",
          "141220.218000",
          "141222.718000",
          "141225.218000",
          "141227.453000"
        ],
        "InstanceNumber": [
          1,
          2,
          3,
          4,
          5,
          6,
          7,
          8,
          9,
          10,
          11,
          12,
          13,
          14,
          15,
          16,
          17,
          18,
          19,
          20,
          21,
          22,
          23,
          24,
          25,
          26,
          27,
          28,
          29,
          30,
          31,
          32,
          33,
          34,
          35,
          36,
          37,
          38,
          39,
          40,
          41,
          42,
          43,
          44,
          45,
          46,
          47,
          48,
          49,
          50,
          51,
          52,
          53,
          54,
          55,
          56,
          57,
          58,
          59,
          60,
          61,
          62,
          63,
          64,
          65,
          66,
          67,
          68,
          69,
          70,
          71,
          72,
          73,
          74,
          75,
          76,
          77,
          78,
          79,
          80,
          81,
          82,
          83,
          84,
          85,
          86,
          87,
          88,
          89,
          90,
          91,
          92,
          93,
          94,
          95,
          96,
          97,
          98,
          99,
          100,
          101,
          102,
          103,
          104,
          105,
          106,
          107,
          108,
          109,
          110,
          111,
          112,
          113,
          114,
          115,
          116,
          117,
          118,
          119,
          120,
          121,
          122,
          123,
          124,
          125,
          126,
          127,
          128,
          129,
          130,
          131,
          132,
          133,
          134,
          135,
          136,
          137,
          138,
          139,
          140,
          141,
          142,
          143,
          144,
          145,
          146,
          147,
          148,
          149,
          150,
          151,
          152,
          153,
          154,
          155,
          156,
          157,
          158,
          159,
          160,
          161,
          162,
          163,
          164
        ],
        "LargestImagePixelValue": [
          955,
          945,
          941,
          958,
          969,
          981,
          952,
          956,
          948,
          939,
          923,
          957,
          1009,
          963,
          940,
          944,
          992,
          940,
          968,
          1002,
          986,
          926,
          931,
          933,
          933,
          1043,
          949,
          925,
          1010,
          922,
          956,
          934,
          956,
          966,
          951,
          980,
          950,
          958,
          968,
          966,
          996,
          976,
          990,
          1032,
          985,
          1000,
          954,
          958,
          955,
          943,
          1051,
          954,
          944,
          942,
          944,
          956,
          1005,
          940,
          1008,
          982,
          952,
          977,
          1100,
          970,
          959,
          956,
          993,
          946,
          938,
          1070,
          1052,
          975,
          1168,
          921,
          957,
          1143,
          1053,
          1046,
          1037,
          1040,
          914,
          917,
          1030,
          1368,
          1244,
          1025,
          971,
          1011,
          1086,
          1002,
          954,
          1107,
          1153,
          1335,
          1238,
          1267,
          982,
          1004,
          1108,
          1001,
          1076,
          1167,
          1071,
          1120,
          1014,
          1024,
          982,
          1225,
          1105,
          1061,
          1145,
          1229,
          1083,
          1011,
          968,
          1015,
          1074,
          1013,
          1020,
          1099,
          1108,
          1164,
          1200,
          1304,
          1169,
          1090,
          1075,
          1014,
          975,
          903,
          1038,
          932,
          899,
          968,
          975,
          906,
          902,
          886,
          1044,
          944,
          984,
          990,
          939,
          953,
          1173,
          905,
          1001,
          961,
          937,
          973,
          1107,
          1069,
          907,
          995,
          1055,
          1047,
          942,
          953,
          959,
          959,
          943,
          1190,
          946,
          949
        ],
        "WindowCenter": [
          502.0,
          505.0,
          505.0,
          505.0,
          505.0,
          501.0,
          503.0,
          502.0,
          499.0,
          500.0,
          503.0,
          487.0,
          508.0,
          506.0,
          504.0,
          504.0,
          503.0,
          503.0,
          502.0,
          504.0,
          504.0,
          505.0,
          507.0,
          505.0,
          507.0,
          507.0,
          507.0,
          506.0,
          505.0,
          505.0,
          507.0,
          507.0,
          506.0,
          505.0,
          503.0,
          503.0,
          505.0,
          506.0,
          506.0,
          488.0,
          495.0,
          506.0,
          507.0,
          506.0,
          508.0,
          507.0,
          506.0,
          507.0,
          506.0,
          509.0,
          510.0,
          509.0,
          508.0,
          508.0,
          509.0,
          509.0,
          509.0,
          507.0,
          509.0,
          509.0,
          508.0,
          508.0,
          510.0,
          508.0,
          509.0,
          508.0,
          509.0,
          506.0,
          507.0,
          496.0,
          475.0,
          498.0,
          498.0,
          481.0,
          479.0,
          483.0,
          489.0,
          508.0,
          506.0,
          503.0,
          498.0,
          500.0,
          517.0,
          520.0,
          516.0,
          516.0,
          515.0,
          516.0,
          515.0,
          516.0,
          516.0,
          518.0,
          503.0,
          517.0,
          516.0,
          512.0,
          502.0,
          507.0,
          515.0,
          518.0,
          519.0,
          518.0,
          517.0,
          517.0,
          516.0,
          519.0,
          517.0,
          517.0,
          516.0,
          519.0,
          520.0,
          519.0,
          519.0,
          516.0,
          505.0,
          517.0,
          519.0,
          521.0,
          519.0,
          499.0,
          521.0,
          512.0,
          519.0,
          517.0,
          517.0,
          492.0,
          508.0,
          515.0,
          508.0,
          470.0,
          494.0,
          502.0,
          483.0,
          477.0,
          499.0,
          497.0,
          469.0,
          472.0,
          486.0,
          487.0,
          481.0,
          460.0,
          471.0,
          484.0,
          504.0,
          491.0,
          498.0,
          506.0,
          502.0,
          504.0,
          509.0,
          504.0,
          497.0,
          503.0,
          504.0,
