{
  "aor": 0.041917012195121964,
  "aqi": 0.043263001585365855,
  "bids_meta": {
    "AcquisitionMatrixPE": 64,
    "AcquisitionNumber": 1,
    "AcquisitionTime": "16:11:35.500000",
    "BandwidthPerPixelPhaseEncode": 26.483,
    "BaseResolution": 64,
    "BodyPartExamined": "HEAD",
    "CogAtlasID": "TODO",
    "ConversionSoftware": "dcm2niix",
    "ConversionSoftwareVersion": "v1.0.20171017 GCC6.3.0",
    "DerivedVendorReportedEchoSpacing": 0.000590001,
    "DeviceSerialNumber": "35177",
    "DwellTime": 4.1e-06,
    "EchoTime": 0.027,
    "EffectiveEchoSpacing": 0.000590001,
    "FlipAngle": 90,
    "ImageOrientationPatientDICOM": [
      0.991706,
      -0.00747498,
      0.128307,
      0.00342175,
      0.999489,
      0.0317816
    ],
    "ImageType": [
      "ORIGINAL",
      "PRIMARY",
      "M",
      "ND",
      "NORM",
      "MOSAIC"
    ],
    "InPlanePhaseEncodingDirectionDICOM": "COL",
    "InstitutionAddress": "Scott_Ave._4525_St._Louis_MO_US_63110",
    "InstitutionName": "Washington_University",
    "InstitutionalDepartmentName": "Department",
    "MRAcquisitionType": "2D",
    "MagneticFieldStrength": 3,
    "Manufacturer": "Siemens",
    "ManufacturersModelName": "TrioTim",
    "Modality": "MR",
    "PartialFourier": 1,
    "PatientPosition": "HFS",
    "PercentPhaseFOV": 100,
    "PhaseEncodingDirection": "j-",
    "PhaseEncodingSteps": 64,
    "PhaseResolution": 1,
    "PixelBandwidth": 1905,
    "ProcedureStepDescription": "head_GREENE",
    "ProtocolName": "ep2d_bold_rest2",
    "PulseSequenceDetails": "%SiemensSeq%_ep2d_bold",
    "ReceiveCoilName": "HeadMatrix",
    "ReconMatrixPE": 64,
    "RepetitionTime": 2.5,
    "SAR": 0.15654,
    "ScanOptions": "FS",
    "ScanningSequence": "EP",
    "SequenceName": "_epfid2d1_64",
    "SequenceVariant": "SK",
    "SeriesDescription": "ep2d_bold_rest2",
    "SeriesNumber": 14,
    "ShimSetting": [
      -190,
      -19653,
      7997,
      163,
      -45,
      -693,
      25,
      -28
    ],
    "SliceThickness": 4,
    "SliceTiming": [
      1.255,
      0,
      1.3325,
      0.0775,
      1.4125,
      0.1575,
      1.49,
      0.235,
      1.5675,
      0.315,
      1.6475,
      0.3925,
      1.725,
      0.47,
      1.805,
      0.55,
      1.8825,
      0.6275,
      1.96,
      0.705,
      2.04,
      0.785,
      2.1175,
      0.8625,
      2.195,
      0.94,
      2.275,
      1.02,
      2.3525,
      1.0975,
      2.4325,
      1.1775
    ],
    "SoftwareVersions": "syngo_MR_B17",
    "SpacingBetweenSlices": 4,
    "StationName": "MRC35177",
    "TaskName": "restfixationnofeedback",
    "TotalReadoutTime": 0.0371701,
    "TxRefAmp": 355.816,
    "dataset": "ds000256",
    "dcmmeta_affine": [
      [
        -3.966825485229492,
        0.01368700247257948,
        0.5139144659042358,
        116.89867401123047
      ],
      [
        0.029899917542934418,
        3.9979560375213623,
        0.12431589514017105,
        -133.6460418701172
      ],
      [
        0.5132263898849487,
        -0.12712635099887848,
        3.9649012088775635,
        -25.37476921081543
      ],
      [
        0.0,
        0.0,
        0.0,
        1.0
      ]
    ],
    "dcmmeta_reorient_transform": [
      [
        0.0,
        -1.0,
        0.0,
        63.0
      ],
      [
        1.0,
        0.0,
        0.0,
        0.0
      ],
      [
        0.0,
        0.0,
        1.0,
        0.0
      ],
      [
        0.0,
        0.0,
        0.0,
        1.0
      ]
    ],
    "dcmmeta_shape": [
      64,
      64,
      32,
      164
    ],
    "dcmmeta_slice_dim": 2,
    "dcmmeta_version": 0.6,
    "global": {
      "const": {
        "AccessionNumber": ".",
        "AcquisitionMatrix": [
          64,
          0,
          0,
          64
        ],
        "AngioFlag": "N",
        "BitsAllocated": 16,
        "BitsStored": 12,
        "BodyPartExamined": "HEAD",
        "Columns": 384,
        "DeidentificationMethodCodeSequence": [
          {
            "CodeMeaning": "XNAT Edit Script",
            "CodeValue": "625500",
            "CodingSchemeDesignator": "XNAT",
            "CodingSchemeVersion": "0.1"
          }
        ],
        "EchoNumbers": 1,
        "EchoTime": 27.0,
        "EchoTrainLength": 1,
        "FlipAngle": 90.0,
        "HighBit": 11,
        "ImageOrientationPatient": [
          0.99170637892917,
          -0.0074749792442,
          0.12830659638732,
          0.00342175066256,
          0.99948898056264,
          0.0317815883219
        ],
        "ImagePositionPatient": [
          -754.64296029678,
          -753.11414757431,
          -135.84016855993
        ],
        "ImageType": [
          "ORIGINAL",
          "PRIMARY",
          "M",
          "ND",
          "NORM",
          "MOSAIC"
        ],
        "ImagedNucleus": "1H",
        "ImagingFrequency": 123.256072,
        "InPlanePhaseEncodingDirection": "COL",
        "MRAcquisitionType": "2D",
        "MagneticFieldStrength": 3.0,
        "Manufacturer": "SIEMENS",
        "ManufacturerModelName": "TrioTim",
        "Modality": "MR",
        "NumberOfAverages": 1.0,
        "NumberOfPhaseEncodingSteps": 64,
        "PercentPhaseFieldOfView": 100.0,
        "PercentSampling": 100.0,
        "PerformedProcedureStepStartTime": "150845.312000",
        "PhotometricInterpretation": "MONOCHROME2",
        "PixelBandwidth": 1905.0,
        "PixelRepresentation": 0,
        "PixelSpacing": [
          4.0,
          4.0
        ],
        "PositionReferenceIndicator": "",
        "ProtocolName": "ep2d_bold_rest2",
        "RepetitionTime": 2500.0,
        "Rows": 384,
        "SAR": 0.15653991715137,
        "SamplesPerPixel": 1,
        "ScanOptions": "FS",
        "ScanningSequence": "EP",
        "SequenceName": "*epfid2d1_64",
        "SequenceVariant": "SK",
        "SeriesDescription": "ep2d_bold_rest2",
        "SeriesNumber": 14,
        "SeriesTime": "161137.562000",
        "SliceLocation": -14.286714390717,
        "SliceThickness": 4.0,
        "SmallestImagePixelValue": 0,
        "SoftwareVersions": "syngo MR B17",
        "SpacingBetweenSlices": 4.0000004546571,
        "SpecificCharacterSet": "ISO_IR 100",
        "StudyID": "1",
        "StudyTime": "150845.265000",
        "TransmitCoilName": "Body",
        "VariableFlipAngleFlag": "N",
        "WindowCenterWidthExplanation": "Algo1",
        "dBdt": 0.0
      },
      "slices": {}
    },
    "modality": "bold",
    "subject_id": "CTS235",
    "task_id": "restfixationnofeedback",
    "time": {
      "samples": {
        "AcquisitionNumber": [
          1,
          2,
          3,
          4,
          5,
          6,
          7,
          8,
          9,
          10,
          11,
          12,
          13,
          14,
          15,
          16,
          17,
          18,
          19,
          20,
          21,
          22,
          23,
          24,
          25,
          26,
          27,
          28,
          29,
          30,
          31,
          32,
          33,
          34,
          35,
          36,
          37,
          38,
          39,
          40,
          41,
          42,
          43,
          44,
          45,
          46,
          47,
          48,
          49,
          50,
          51,
          52,
          53,
          54,
          55,
          56,
          57,
          58,
          59,
          60,
          61,
          62,
          63,
          64,
          65,
          66,
          67,
          68,
          69,
          70,
          71,
          72,
          73,
          74,
          75,
          76,
          77,
          78,
          79,
          80,
          81,
          82,
          83,
          84,
          85,
          86,
          87,
          88,
          89,
          90,
          91,
          92,
          93,
          94,
          95,
          96,
          97,
          98,
          99,
          100,
          101,
          102,
          103,
          104,
          105,
          106,
          107,
          108,
          109,
          110,
          111,
          112,
          113,
          114,
          115,
          116,
          117,
          118,
          119,
          120,
          121,
          122,
          123,
          124,
          125,
          126,
          127,
          128,
          129,
          130,
          131,
          132,
          133,
          134,
          135,
          136,
          137,
          138,
          139,
          140,
          141,
          142,
          143,
          144,
          145,
          146,
          147,
          148,
          149,
          150,
          151,
          152,
          153,
          154,
          155,
          156,
          157,
          158,
          159,
          160,
          161,
          162,
          163,
          164
        ],
        "AcquisitionTime": [
          "161135.500000",
          "161138.010000",
          "161140.520000",
          "161143.030000",
          "161145.540000",
          "161148.050000",
          "161150.560000",
          "161153.070000",
          "161155.580000",
          "161158.090000",
          "161200.600000",
          "161203.110000",
          "161205.620000",
          "161208.130000",
          "161210.640000",
          "161213.150000",
          "161215.660000",
          "161218.170000",
          "161220.680000",
          "161223.190000",
          "161225.700000",
          "161228.210000",
          "161230.720000",
          "161233.230000",
          "161235.740000",
          "161238.250000",
          "161240.760000",
          "161243.270000",
          "161245.780000",
          "161248.290000",
          "161250.800000",
          "161253.310000",
          "161255.820000",
          "161258.330000",
          "161300.842500",
          "161303.352500",
          "161305.862500",
          "161308.372500",
          "161310.882500",
          "161313.392500",
          "161315.902500",
          "161318.412500",
          "161320.922500",
          "161323.432500",
          "161325.942500",
          "161328.452500",
          "161330.962500",
          "161333.472500",
          "161335.982500",
          "161338.492500",
          "161341.002500",
          "161343.512500",
          "161346.022500",
          "161348.532500",
          "161351.042500",
          "161353.552500",
          "161356.062500",
          "161358.572500",
          "161401.082500",
          "161403.592500",
          "161406.102500",
          "161408.612500",
          "161411.122500",
          "161413.632500",
          "161416.142500",
          "161418.652500",
          "161421.162500",
          "161423.672500",
          "161426.182500",
          "161428.692500",
          "161431.202500",
          "161433.712500",
          "161436.222500",
          "161438.732500",
          "161441.242500",
          "161443.752500",
          "161446.262500",
          "161448.772500",
          "161451.282500",
          "161453.792500",
          "161456.302500",
          "161458.812500",
          "161501.322500",
          "161503.832500",
          "161506.342500",
          "161508.852500",
          "161511.362500",
          "161513.872500",
          "161516.382500",
          "161518.892500",
          "161521.402500",
          "161523.912500",
          "161526.422500",
          "161528.932500",
          "161531.442500",
          "161533.952500",
          "161536.465000",
          "161538.975000",
          "161541.485000",
          "161543.995000",
          "161546.505000",
          "161549.015000",
          "161551.525000",
          "161554.035000",
          "161556.545000",
          "161559.055000",
          "161601.565000",
          "161604.075000",
          "161606.585000",
          "161609.095000",
          "161611.605000",
          "161614.115000",
          "161616.625000",
          "161619.135000",
          "161621.645000",
          "161624.155000",
          "161626.665000",
          "161629.175000",
          "161631.685000",
          "161634.195000",
          "161636.705000",
          "161639.215000",
          "161641.725000",
          "161644.235000",
          "161646.745000",
          "161649.255000",
          "161651.765000",
          "161654.275000",
          "161656.785000",
          "161659.295000",
          "161701.805000",
          "161704.315000",
          "161706.825000",
          "161709.335000",
          "161711.845000",
          "161714.355000",
          "161716.865000",
          "161719.375000",
          "161721.885000",
          "161724.395000",
          "161726.905000",
          "161729.415000",
          "161731.925000",
          "161734.435000",
          "161736.945000",
          "161739.455000",
          "161741.965000",
          "161744.475000",
          "161746.985000",
          "161749.495000",
          "161752.005000",
          "161754.515000",
          "161757.025000",
          "161759.535000",
          "161802.045000",
          "161804.555000",
          "161807.065000",
          "161809.575000",
          "161812.085000",
          "161814.597500",
          "161817.107500",
          "161819.617500",
          "161822.127500",
          "161824.637500"
        ],
        "ContentTime": [
          "161137.578000",
          "161140.062000",
          "161142.562000",
          "161145.062000",
          "161147.562000",
          "161150.062000",
          "161152.562000",
          "161155.062000",
          "161157.562000",
          "161200.062000",
          "161202.562000",
          "161205.062000",
          "161207.562000",
          "161210.062000",
          "161212.562000",
          "161215.062000",
          "161217.562000",
          "161220.062000",
          "161222.562000",
          "161225.062000",
          "161227.562000",
          "161230.062000",
          "161232.562000",
          "161235.062000",
          "161237.562000",
          "161240.062000",
          "161242.562000",
          "161245.062000",
          "161247.562000",
          "161250.062000",
          "161252.562000",
          "161255.062000",
          "161257.562000",
          "161300.062000",
          "161302.562000",
          "161305.062000",
          "161307.562000",
          "161310.062000",
          "161312.562000",
          "161315.062000",
          "161317.562000",
          "161320.062000",
          "161322.562000",
          "161325.062000",
          "161327.562000",
          "161330.062000",
          "161332.562000",
          "161335.062000",
          "161337.562000",
          "161340.062000",
          "161342.562000",
          "161345.062000",
          "161347.562000",
          "161350.062000",
          "161352.562000",
          "161355.062000",
          "161357.562000",
          "161400.062000",
          "161402.562000",
          "161405.062000",
          "161407.562000",
          "161410.062000",
          "161412.562000",
          "161415.062000",
          "161417.562000",
          "161420.062000",
          "161422.562000",
          "161425.062000",
          "161427.562000",
          "161430.062000",
          "161432.562000",
          "161435.062000",
          "161437.562000",
          "161440.062000",
          "161442.562000",
          "161445.062000",
          "161447.562000",
          "161450.062000",
          "161452.562000",
          "161455.062000",
          "161457.562000",
          "161500.062000",
          "161502.562000",
          "161505.062000",
          "161507.562000",
          "161510.062000",
          "161512.562000",
          "161515.062000",
          "161517.562000",
          "161520.062000",
          "161522.562000",
          "161525.062000",
          "161527.562000",
          "161530.062000",
          "161532.562000",
          "161535.062000",
          "161537.562000",
          "161540.062000",
          "161542.562000",
          "161545.062000",
          "161547.562000",
          "161550.062000",
          "161552.562000",
          "161555.062000",
          "161557.562000",
          "161600.062000",
          "161602.562000",
          "161605.062000",
          "161607.562000",
          "161610.062000",
          "161612.562000",
          "161615.062000",
          "161617.562000",
          "161620.062000",
          "161622.562000",
          "161625.062000",
          "161627.562000",
          "161630.062000",
          "161632.562000",
          "161635.062000",
          "161637.562000",
          "161640.062000",
          "161642.562000",
          "161645.062000",
          "161647.562000",
          "161650.062000",
          "161652.562000",
          "161655.062000",
          "161657.562000",
          "161700.062000",
          "161702.562000",
          "161705.062000",
          "161707.562000",
          "161710.062000",
          "161712.562000",
          "161715.062000",
          "161717.562000",
          "161720.062000",
          "161722.562000",
          "161725.062000",
          "161727.562000",
          "161730.062000",
          "161732.562000",
          "161735.062000",
          "161737.562000",
          "161740.062000",
          "161742.562000",
          "161745.062000",
          "161747.562000",
          "161750.062000",
          "161752.562000",
          "161755.062000",
          "161757.562000",
          "161800.062000",
          "161802.562000",
          "161805.062000",
          "161807.562000",
          "161810.062000",
          "161812.562000",
          "161815.062000",
          "161817.562000",
          "161820.062000",
          "161822.562000",
          "161825.031000"
        ],
        "InstanceCreationTime": [
          "161137.578000",
          "161140.062000",
          "161142.562000",
          "161145.062000",
          "161147.562000",
          "161150.062000",
          "161152.562000",
          "161155.062000",
          "161157.562000",
          "161200.062000",
          "161202.562000",
          "161205.062000",
          "161207.562000",
          "161210.062000",
          "161212.562000",
          "161215.062000",
          "161217.562000",
          "161220.062000",
          "161222.562000",
          "161225.062000",
          "161227.562000",
          "161230.062000",
          "161232.562000",
          "161235.062000",
          "161237.562000",
          "161240.062000",
          "161242.562000",
          "161245.062000",
          "161247.562000",
          "161250.062000",
          "161252.562000",
          "161255.062000",
          "161257.562000",
          "161300.062000",
          "161302.562000",
          "161305.062000",
          "161307.562000",
          "161310.062000",
          "161312.562000",
          "161315.062000",
          "161317.562000",
          "161320.062000",
          "161322.562000",
          "161325.062000",
          "161327.562000",
          "161330.062000",
          "161332.562000",
          "161335.062000",
          "161337.562000",
          "161340.062000",
          "161342.562000",
          "161345.062000",
          "161347.562000",
          "161350.062000",
          "161352.562000",
          "161355.062000",
          "161357.562000",
          "161400.062000",
          "161402.562000",
          "161405.062000",
          "161407.562000",
          "161410.062000",
          "161412.562000",
          "161415.062000",
          "161417.562000",
          "161420.062000",
          "161422.562000",
          "161425.062000",
          "161427.562000",
          "161430.062000",
          "161432.562000",
          "161435.062000",
          "161437.562000",
          "161440.062000",
          "161442.562000",
          "161445.062000",
          "161447.562000",
          "161450.062000",
          "161452.562000",
          "161455.062000",
          "161457.562000",
          "161500.062000",
          "161502.562000",
          "161505.062000",
          "161507.562000",
          "161510.062000",
          "161512.562000",
          "161515.062000",
          "161517.562000",
          "161520.062000",
          "161522.562000",
          "161525.062000",
          "161527.562000",
          "161530.062000",
          "161532.562000",
          "161535.062000",
          "161537.562000",
          "161540.062000",
          "161542.562000",
          "161545.062000",
          "161547.562000",
          "161550.062000",
          "161552.562000",
          "161555.062000",
          "161557.562000",
          "161600.062000",
          "161602.562000",
          "161605.062000",
          "161607.562000",
          "161610.062000",
          "161612.562000",
          "161615.062000",
          "161617.562000",
          "161620.062000",
          "161622.562000",
          "161625.062000",
          "161627.562000",
          "161630.062000",
          "161632.562000",
          "161635.062000",
          "161637.562000",
          "161640.062000",
          "161642.562000",
          "161645.062000",
          "161647.562000",
          "161650.062000",
          "161652.562000",
          "161655.062000",
          "161657.562000",
          "161700.062000",
          "161702.562000",
          "161705.062000",
          "161707.562000",
          "161710.062000",
          "161712.562000",
          "161715.062000",
          "161717.562000",
          "161720.062000",
          "161722.562000",
          "161725.062000",
          "161727.562000",
          "161730.062000",
          "161732.562000",
          "161735.062000",
          "161737.562000",
          "161740.062000",
          "161742.562000",
          "161745.062000",
          "161747.562000",
          "161750.062000",
          "161752.562000",
          "161755.062000",
          "161757.562000",
          "161800.062000",
          "161802.562000",
          "161805.062000",
          "161807.562000",
          "161810.062000",
          "161812.562000",
          "161815.062000",
          "161817.562000",
          "161820.062000",
          "161822.562000",
          "161825.031000"
        ],
        "InstanceNumber": [
          1,
          2,
          3,
          4,
          5,
          6,
          7,
          8,
          9,
          10,
          11,
          12,
          13,
          14,
          15,
          16,
          17,
          18,
          19,
          20,
          21,
          22,
          23,
          24,
          25,
          26,
          27,
          28,
          29,
          30,
          31,
          32,
          33,
          34,
          35,
          36,
          37,
          38,
          39,
          40,
          41,
          42,
          43,
          44,
          45,
          46,
          47,
          48,
          49,
          50,
          51,
          52,
          53,
          54,
          55,
          56,
          57,
          58,
          59,
          60,
          61,
          62,
          63,
          64,
          65,
          66,
          67,
          68,
          69,
          70,
          71,
          72,
          73,
          74,
          75,
          76,
          77,
          78,
          79,
          80,
          81,
          82,
          83,
          84,
          85,
          86,
          87,
          88,
          89,
          90,
          91,
          92,
          93,
          94,
          95,
          96,
          97,
          98,
          99,
          100,
          101,
          102,
          103,
          104,
          105,
          106,
          107,
          108,
          109,
          110,
          111,
          112,
          113,
          114,
          115,
          116,
          117,
          118,
          119,
          120,
          121,
          122,
          123,
          124,
          125,
          126,
          127,
          128,
          129,
          130,
          131,
          132,
          133,
          134,
          135,
          136,
          137,
          138,
          139,
          140,
          141,
          142,
          143,
          144,
          145,
          146,
          147,
          148,
          149,
          150,
          151,
          152,
          153,
          154,
          155,
          156,
          157,
          158,
          159,
          160,
          161,
          162,
          163,
          164
        ],
        "LargestImagePixelValue": [
          1380,
          1281,
          1296,
          1309,
          1534,
          1454,
          1299,
          1279,
          1326,
          1365,
          1332,
          1320,
          1295,
          1295,
          1302,
          1298,
          1301,
          1311,
          1300,
          1299,
          1301,
          1280,
          1327,
          1279,
          1246,
          1316,
          1288,
          1262,
          1282,
          1285,
          1333,
          1485,
          1529,
          1268,
          1253,
          1265,
          1365,
          1395,
          1330,
          1302,
          1287,
          1321,
          1306,
          1356,
          1294,
          1313,
          1298,
          1305,
          1300,
          1338,
          1284,
          1227,
          1269,
          1333,
          1317,
          1302,
          1309,
          1281,
          1294,
          1372,
          1328,
          1331,
          1299,
          1329,
          1301,
          1286,
          1240,
          1372,
          1354,
          1363,
          1348,
          1344,
          1394,
          1333,
          1264,
          1324,
          1477,
          1284,
          1269,
          1277,
          1273,
          1278,
          1309,
          1315,
          1355,
          1360,
          1430,
          1319,
          1316,
          1340,
          1308,
          1325,
          1566,
          1336,
          1278,
          1318,
          1417,
          1308,
          1227,
          1256,
          1289,
          1246,
          1255,
          1307,
          1299,
          1274,
          1234,
          1384,
          1267,
          1297,
          1328,
          1285,
          1323,
          1350,
          1438,
          1435,
          1313,
          1319,
          1290,
          1328,
          1381,
          1301,
          1327,
          1333,
          1308,
          1319,
          1513,
          1344,
          1286,
          1485,
          1455,
          1329,
          1221,
          1307,
          1255,
          1529,
          1522,
          1591,
          1539,
          1303,
          1308,
          1440,
          1254,
          1460,
          1406,
          1408,
          1640,
          1447,
          1332,
          1521,
          1352,
          1325,
          1351,
          1330,
          1344,
          1315,
          1324,
          1429,
          1339,
          1336,
          1332,
          1355,
          1332,
          1340
        ],
        "WindowCenter": [
          618.0,
          616.0,
          614.0,
          617.0,
          617.0,
          614.0,
          615.0,
          614.0,
          615.0,
          616.0,
          616.0,
          615.0,
          615.0,
          615.0,
          615.0,
          616.0,
          615.0,
          617.0,
          616.0,
          617.0,
          617.0,
          616.0,
          615.0,
          616.0,
          616.0,
          616.0,
          616.0,
          616.0,
          617.0,
          610.0,
          616.0,
          617.0,
          616.0,
          615.0,
          614.0,
          615.0,
          619.0,
          615.0,
          613.0,
          616.0,
          616.0,
          617.0,
          617.0,
          618.0,
          615.0,
          615.0,
          617.0,
          617.0,
          615.0,
          618.0,
          616.0,
          616.0,
          616.0,
          617.0,
          617.0,
          616.0,
          617.0,
          616.0,
          617.0,
          614.0,
          614.0,
          617.0,
          617.0,
          616.0,
          616.0,
          614.0,
          614.0,
          615.0,
          612.0,
          616.0,
          609.0,
          610.0,
          611.0,
          601.0,
          603.0,
          604.0,
          620.0,
          616.0,
          618.0,
          618.0,
          618.0,
          617.0,
          618.0,
          618.0,
          619.0,
          618.0,
          617.0,
          617.0,
          615.0,
          618.0,
          618.0,
          617.0,
          619.0,
          618.0,
          618.0,
          618.0,
          618.0,
          617.0,
          616.0,
          616.0,
          617.0,
          618.0,
          618.0,
          617.0,
          617.0,
          616.0,
          617.0,
          618.0,
          617.0,
          618.0,
          617.0,
          618.0,
          618.0,
          619.0,
          617.0,
          616.0,
          616.0,
          617.0,
          617.0,
          617.0,
          617.0,
          618.0,
          616.0,
          618.0,
          616.0,
          618.0,
          618.0,
          616.0,
          604.0,
          618.0,
          615.0,
          609.0,
          596.0,
          613.0,
          615.0,
          589.0,
          612.0,
          623.0,
          617.0,
          619.0,
          620.0,
          616.0,
          591.0,
          626.0,
          615.0,
          619.0,
          617.0,
          616.0,
          618.0,
          619.0,
