{
  "aor": 0.03192060975609756,
  "aqi": 0.015103518536585366,
  "bids_meta": {
    "AcquisitionMatrixPE": 64,
    "AcquisitionNumber": 1,
    "AcquisitionTime": "15:33:7.022500",
    "BandwidthPerPixelPhaseEncode": 26.483,
    "BaseResolution": 64,
    "BodyPartExamined": "HEAD",
    "CogAtlasID": "TODO",
    "ConversionSoftware": "dcm2niix",
    "ConversionSoftwareVersion": "v1.0.20171017 GCC6.3.0",
    "DerivedVendorReportedEchoSpacing": 0.000590001,
    "DeviceSerialNumber": "35177",
    "DwellTime": 4.1e-06,
    "EchoTime": 0.027,
    "EffectiveEchoSpacing": 0.000590001,
    "FlipAngle": 90,
    "ImageOrientationPatientDICOM": [
      0.995416,
      0.0555592,
      0.0778464,
      -0.0584318,
      0.997673,
      0.0351203
    ],
    "ImageType": [
      "ORIGINAL",
      "PRIMARY",
      "M",
      "ND",
      "NORM",
      "MOSAIC"
    ],
    "InPlanePhaseEncodingDirectionDICOM": "COL",
    "InstitutionAddress": "Scott_Ave._4525_St._Louis_MO_US_63110",
    "InstitutionName": "Washington_University",
    "InstitutionalDepartmentName": "Department",
    "MRAcquisitionType": "2D",
    "MagneticFieldStrength": 3,
    "Manufacturer": "Siemens",
    "ManufacturersModelName": "TrioTim",
    "Modality": "MR",
    "PartialFourier": 1,
    "PatientPosition": "HFS",
    "PercentPhaseFOV": 100,
    "PhaseEncodingDirection": "j-",
    "PhaseEncodingSteps": 64,
    "PhaseResolution": 1,
    "PixelBandwidth": 1905,
    "ProcedureStepDescription": "head_GREENE",
    "ProtocolName": "ep2d_bold_ad_movie_1B",
    "PulseSequenceDetails": "%SiemensSeq%_ep2d_bold",
    "ReceiveCoilName": "HeadMatrix",
    "ReconMatrixPE": 64,
    "RepetitionTime": 2.5,
    "SAR": 0.131919,
    "ScanOptions": "FS",
    "ScanningSequence": "EP",
    "SequenceName": "_epfid2d1_64",
    "SequenceVariant": "SK",
    "SeriesDescription": "ep2d_bold_ad_movie_1B",
    "SeriesNumber": 7,
    "ShimSetting": [
      -168,
      -19566,
      7959,
      293,
      -15,
      -599,
      54,
      -77
    ],
    "SliceThickness": 4,
    "SliceTiming": [
      1.255,
      0,
      1.3325,
      0.0775,
      1.41,
      0.155,
      1.49,
      0.235,
      1.5675,
      0.3125,
      1.645,
      0.39,
      1.725,
      0.47,
      1.8025,
      0.5475,
      1.8825,
      0.6275,
      1.96,
      0.705,
      2.0375,
      0.7825,
      2.1175,
      0.8625,
      2.195,
      0.94,
      2.2725,
      1.0175,
      2.3525,
      1.0975,
      2.43,
      1.175
    ],
    "SoftwareVersions": "syngo_MR_B17",
    "SpacingBetweenSlices": 4,
    "StationName": "MRC35177",
    "TaskName": "restmovieadaptive",
    "TotalReadoutTime": 0.0371701,
    "TxRefAmp": 338.66,
    "dataset": "ds000256",
    "dcmmeta_affine": [
      [
        -3.9816641807556152,
        -0.23372702300548553,
        0.3028559982776642,
        130.40554809570312
      ],
      [
        -0.2222367376089096,
        3.9906938076019287,
        0.15803197026252747,
        -129.5867462158203
      ],
      [
        0.31138551235198975,
        -0.1404811441898346,
        3.9853856563568115,
        -52.14447021484375
      ],
      [
        0.0,
        0.0,
        0.0,
        1.0
      ]
    ],
    "dcmmeta_reorient_transform": [
      [
        0.0,
        -1.0,
        0.0,
        63.0
      ],
      [
        1.0,
        0.0,
        0.0,
        0.0
      ],
      [
        0.0,
        0.0,
        1.0,
        0.0
      ],
      [
        0.0,
        0.0,
        0.0,
        1.0
      ]
    ],
    "dcmmeta_shape": [
      64,
      64,
      32,
      164
    ],
    "dcmmeta_slice_dim": 2,
    "dcmmeta_version": 0.6,
    "global": {
      "const": {
        "AccessionNumber": ".",
        "AcquisitionMatrix": [
          64,
          0,
          0,
          64
        ],
        "AngioFlag": "N",
        "BitsAllocated": 16,
        "BitsStored": 12,
        "BodyPartExamined": "HEAD",
        "Columns": 384,
        "DeidentificationMethodCodeSequence": [
          {
            "CodeMeaning": "XNAT Edit Script",
            "CodeValue": "625500",
            "CodingSchemeDesignator": "XNAT",
            "CodingSchemeVersion": "0.1"
          }
        ],
        "EchoNumbers": 1,
        "EchoTime": 27.0,
        "EchoTrainLength": 1,
        "FlipAngle": 90.0,
        "HighBit": 11,
        "ImageOrientationPatient": [
          0.99541605286516,
          0.05555918320862,
          0.07784637987428,
          -0.0584317566844,
          0.99767344123605,
          0.03512028563383
        ],
        "ImagePositionPatient": [
          -715.35068886792,
          -795.89583344521,
          -133.2934485487
        ],
        "ImageType": [
          "ORIGINAL",
          "PRIMARY",
          "M",
          "ND",
          "NORM",
          "MOSAIC"
        ],
        "ImagedNucleus": "1H",
        "ImagingFrequency": 123.256122,
        "InPlanePhaseEncodingDirection": "COL",
        "MRAcquisitionType": "2D",
        "MagneticFieldStrength": 3.0,
        "Manufacturer": "SIEMENS",
        "ManufacturerModelName": "TrioTim",
        "Modality": "MR",
        "NumberOfAverages": 1.0,
        "NumberOfPhaseEncodingSteps": 64,
        "PercentPhaseFieldOfView": 100.0,
        "PercentSampling": 100.0,
        "PerformedProcedureStepStartTime": "150845.312000",
        "PhotometricInterpretation": "MONOCHROME2",
        "PixelBandwidth": 1905.0,
        "PixelRepresentation": 0,
        "PixelSpacing": [
          4.0,
          4.0
        ],
        "PositionReferenceIndicator": "",
        "ProtocolName": "ep2d_bold_ad_movie_1B",
        "RepetitionTime": 2500.0,
        "Rows": 384,
        "SAR": 0.13191939945791,
        "SamplesPerPixel": 1,
        "ScanOptions": "FS",
        "ScanningSequence": "EP",
        "SequenceName": "*epfid2d1_64",
        "SequenceVariant": "SK",
        "SeriesDescription": "ep2d_bold_ad_movie_1B",
        "SeriesNumber": 7,
        "SeriesTime": "153309.078000",
        "SliceLocation": -47.200151330892,
        "SliceThickness": 4.0,
        "SmallestImagePixelValue": 0,
        "SoftwareVersions": "syngo MR B17",
        "SpacingBetweenSlices": 3.9999994505461,
        "SpecificCharacterSet": "ISO_IR 100",
        "StudyID": "1",
        "StudyTime": "150845.265000",
        "TransmitCoilName": "Body",
        "VariableFlipAngleFlag": "N",
        "WindowCenterWidthExplanation": "Algo1",
        "dBdt": 0.0
      },
      "slices": {}
    },
    "modality": "bold",
    "subject_id": "CTS235",
    "task_id": "restmovieadaptive",
    "time": {
      "samples": {
        "AcquisitionNumber": [
          1,
          2,
          3,
          4,
          5,
          6,
          7,
          8,
          9,
          10,
          11,
          12,
          13,
          14,
          15,
          16,
          17,
          18,
          19,
          20,
          21,
          22,
          23,
          24,
          25,
          26,
          27,
          28,
          29,
          30,
          31,
          32,
          33,
          34,
          35,
          36,
          37,
          38,
          39,
          40,
          41,
          42,
          43,
          44,
          45,
          46,
          47,
          48,
          49,
          50,
          51,
          52,
          53,
          54,
          55,
          56,
          57,
          58,
          59,
          60,
          61,
          62,
          63,
          64,
          65,
          66,
          67,
          68,
          69,
          70,
          71,
          72,
          73,
          74,
          75,
          76,
          77,
          78,
          79,
          80,
          81,
          82,
          83,
          84,
          85,
          86,
          87,
          88,
          89,
          90,
          91,
          92,
          93,
          94,
          95,
          96,
          97,
          98,
          99,
          100,
          101,
          102,
          103,
          104,
          105,
          106,
          107,
          108,
          109,
          110,
          111,
          112,
          113,
          114,
          115,
          116,
          117,
          118,
          119,
          120,
          121,
          122,
          123,
          124,
          125,
          126,
          127,
          128,
          129,
          130,
          131,
          132,
          133,
          134,
          135,
          136,
          137,
          138,
          139,
          140,
          141,
          142,
          143,
          144,
          145,
          146,
          147,
          148,
          149,
          150,
          151,
          152,
          153,
          154,
          155,
          156,
          157,
          158,
          159,
          160,
          161,
          162,
          163,
          164
        ],
        "AcquisitionTime": [
          "153307.022500",
          "153309.532500",
          "153312.042500",
          "153314.552500",
          "153317.062500",
          "153319.572500",
          "153322.082500",
          "153324.592500",
          "153327.102500",
          "153329.612500",
          "153332.122500",
          "153334.632500",
          "153337.142500",
          "153339.652500",
          "153342.162500",
          "153344.672500",
          "153347.182500",
          "153349.692500",
          "153352.202500",
          "153354.712500",
          "153357.222500",
          "153359.732500",
          "153402.242500",
          "153404.752500",
          "153407.262500",
          "153409.772500",
          "153412.282500",
          "153414.792500",
          "153417.302500",
          "153419.812500",
          "153422.322500",
          "153424.832500",
          "153427.342500",
          "153429.852500",
          "153432.362500",
          "153434.872500",
          "153437.382500",
          "153439.892500",
          "153442.402500",
          "153444.912500",
          "153447.422500",
          "153449.932500",
          "153452.442500",
          "153454.952500",
          "153457.462500",
          "153459.972500",
          "153502.482500",
          "153504.992500",
          "153507.502500",
          "153510.012500",
          "153512.522500",
          "153515.032500",
          "153517.542500",
          "153520.052500",
          "153522.562500",
          "153525.072500",
          "153527.582500",
          "153530.092500",
          "153532.602500",
          "153535.115000",
          "153537.625000",
          "153540.135000",
          "153542.645000",
          "153545.155000",
          "153547.665000",
          "153550.175000",
          "153552.685000",
          "153555.195000",
          "153557.705000",
          "153600.215000",
          "153602.725000",
          "153605.235000",
          "153607.745000",
          "153610.255000",
          "153612.765000",
          "153615.275000",
          "153617.785000",
          "153620.295000",
          "153622.805000",
          "153625.315000",
          "153627.825000",
          "153630.335000",
          "153632.845000",
          "153635.355000",
          "153637.865000",
          "153640.375000",
          "153642.885000",
          "153645.395000",
          "153647.905000",
          "153650.415000",
          "153652.925000",
          "153655.435000",
          "153657.945000",
          "153700.455000",
          "153702.965000",
          "153705.475000",
          "153707.985000",
          "153710.495000",
          "153713.005000",
          "153715.515000",
          "153718.025000",
          "153720.535000",
          "153723.045000",
          "153725.555000",
          "153728.065000",
          "153730.575000",
          "153733.085000",
          "153735.595000",
          "153738.105000",
          "153740.615000",
          "153743.125000",
          "153745.635000",
          "153748.145000",
          "153750.655000",
          "153753.165000",
          "153755.675000",
          "153758.185000",
          "153800.695000",
          "153803.205000",
          "153805.715000",
          "153808.225000",
          "153810.737500",
          "153813.247500",
          "153815.757500",
          "153818.267500",
          "153820.777500",
          "153823.287500",
          "153825.797500",
          "153828.307500",
          "153830.817500",
          "153833.327500",
          "153835.837500",
          "153838.347500",
          "153840.857500",
          "153843.367500",
          "153845.877500",
          "153848.387500",
          "153850.897500",
          "153853.407500",
          "153855.917500",
          "153858.427500",
          "153900.937500",
          "153903.447500",
          "153905.957500",
          "153908.467500",
          "153910.977500",
          "153913.487500",
          "153915.997500",
          "153918.507500",
          "153921.017500",
          "153923.527500",
          "153926.037500",
          "153928.547500",
          "153931.057500",
          "153933.567500",
          "153936.077500",
          "153938.587500",
          "153941.097500",
          "153943.607500",
          "153946.117500",
          "153948.627500",
          "153951.137500",
          "153953.647500",
          "153956.157500"
        ],
        "ContentTime": [
          "153309.078000",
          "153311.578000",
          "153314.078000",
          "153316.578000",
          "153319.078000",
          "153321.578000",
          "153324.078000",
          "153326.578000",
          "153329.078000",
          "153331.578000",
          "153334.078000",
          "153336.578000",
          "153339.078000",
          "153341.578000",
          "153344.078000",
          "153346.578000",
          "153349.078000",
          "153351.578000",
          "153354.078000",
          "153356.578000",
          "153359.078000",
          "153401.578000",
          "153404.078000",
          "153406.578000",
          "153409.078000",
          "153411.578000",
          "153414.078000",
          "153416.578000",
          "153419.078000",
          "153421.578000",
          "153424.078000",
          "153426.578000",
          "153429.078000",
          "153431.578000",
          "153434.078000",
          "153436.578000",
          "153439.078000",
          "153441.578000",
          "153444.078000",
          "153446.578000",
          "153449.078000",
          "153451.578000",
          "153454.078000",
          "153456.578000",
          "153459.078000",
          "153501.578000",
          "153504.078000",
          "153506.578000",
          "153509.078000",
          "153511.578000",
          "153514.078000",
          "153516.578000",
          "153519.078000",
          "153521.578000",
          "153524.078000",
          "153526.578000",
          "153529.078000",
          "153531.578000",
          "153534.078000",
          "153536.578000",
          "153539.078000",
          "153541.578000",
          "153544.078000",
          "153546.578000",
          "153549.078000",
          "153551.578000",
          "153554.078000",
          "153556.578000",
          "153559.078000",
          "153601.578000",
          "153604.078000",
          "153606.578000",
          "153609.078000",
          "153611.578000",
          "153614.078000",
          "153616.578000",
          "153619.078000",
          "153621.578000",
          "153624.078000",
          "153626.578000",
          "153629.078000",
          "153631.578000",
          "153634.078000",
          "153636.578000",
          "153639.078000",
          "153641.578000",
          "153644.078000",
          "153646.578000",
          "153649.078000",
          "153651.578000",
          "153654.078000",
          "153656.578000",
          "153659.078000",
          "153701.578000",
          "153704.078000",
          "153706.578000",
          "153709.078000",
          "153711.578000",
          "153714.078000",
          "153716.578000",
          "153719.078000",
          "153721.578000",
          "153724.078000",
          "153726.578000",
          "153729.078000",
          "153731.578000",
          "153734.078000",
          "153736.578000",
          "153739.078000",
          "153741.578000",
          "153744.078000",
          "153746.578000",
          "153749.078000",
          "153751.578000",
          "153754.078000",
          "153756.578000",
          "153759.078000",
          "153801.578000",
          "153804.078000",
          "153806.578000",
          "153809.078000",
          "153811.578000",
          "153814.078000",
          "153816.578000",
          "153819.078000",
          "153821.578000",
          "153824.078000",
          "153826.578000",
          "153829.078000",
          "153831.578000",
          "153834.078000",
          "153836.578000",
          "153839.078000",
          "153841.578000",
          "153844.078000",
          "153846.578000",
          "153849.078000",
          "153851.578000",
          "153854.078000",
          "153856.578000",
          "153859.078000",
          "153901.578000",
          "153904.078000",
          "153906.578000",
          "153909.078000",
          "153911.578000",
          "153914.078000",
          "153916.578000",
          "153919.078000",
          "153921.578000",
          "153924.078000",
          "153926.578000",
          "153929.078000",
          "153931.578000",
          "153934.078000",
          "153936.578000",
          "153939.078000",
          "153941.578000",
          "153944.078000",
          "153946.578000",
          "153949.078000",
          "153951.578000",
          "153954.078000",
          "153956.218000"
        ],
        "InstanceCreationTime": [
          "153309.078000",
          "153311.578000",
          "153314.078000",
          "153316.578000",
          "153319.078000",
          "153321.578000",
          "153324.078000",
          "153326.578000",
          "153329.078000",
          "153331.578000",
          "153334.078000",
          "153336.578000",
          "153339.078000",
          "153341.578000",
          "153344.078000",
          "153346.578000",
          "153349.078000",
          "153351.578000",
          "153354.078000",
          "153356.578000",
          "153359.078000",
          "153401.578000",
          "153404.078000",
          "153406.578000",
          "153409.078000",
          "153411.578000",
          "153414.078000",
          "153416.578000",
          "153419.078000",
          "153421.578000",
          "153424.078000",
          "153426.578000",
          "153429.078000",
          "153431.578000",
          "153434.078000",
          "153436.578000",
          "153439.078000",
          "153441.578000",
          "153444.078000",
          "153446.578000",
          "153449.078000",
          "153451.578000",
          "153454.078000",
          "153456.578000",
          "153459.078000",
          "153501.578000",
          "153504.078000",
          "153506.578000",
          "153509.078000",
          "153511.578000",
          "153514.078000",
          "153516.578000",
          "153519.078000",
          "153521.578000",
          "153524.078000",
          "153526.578000",
          "153529.078000",
          "153531.578000",
          "153534.078000",
          "153536.578000",
          "153539.078000",
          "153541.578000",
          "153544.078000",
          "153546.578000",
          "153549.078000",
          "153551.578000",
          "153554.078000",
          "153556.578000",
          "153559.078000",
          "153601.578000",
          "153604.078000",
          "153606.578000",
          "153609.078000",
          "153611.578000",
          "153614.078000",
          "153616.578000",
          "153619.078000",
          "153621.578000",
          "153624.078000",
          "153626.578000",
          "153629.078000",
          "153631.578000",
          "153634.078000",
          "153636.578000",
          "153639.078000",
          "153641.578000",
          "153644.078000",
          "153646.578000",
          "153649.078000",
          "153651.578000",
          "153654.078000",
          "153656.578000",
          "153659.078000",
          "153701.578000",
          "153704.078000",
          "153706.578000",
          "153709.078000",
          "153711.578000",
          "153714.078000",
          "153716.578000",
          "153719.078000",
          "153721.578000",
          "153724.078000",
          "153726.578000",
          "153729.078000",
          "153731.578000",
          "153734.078000",
          "153736.578000",
          "153739.078000",
          "153741.578000",
          "153744.078000",
          "153746.578000",
          "153749.078000",
          "153751.578000",
          "153754.078000",
          "153756.578000",
          "153759.078000",
          "153801.578000",
          "153804.078000",
          "153806.578000",
          "153809.078000",
          "153811.578000",
          "153814.078000",
          "153816.578000",
          "153819.078000",
          "153821.578000",
          "153824.078000",
          "153826.578000",
          "153829.078000",
          "153831.578000",
          "153834.078000",
          "153836.578000",
          "153839.078000",
          "153841.578000",
          "153844.078000",
          "153846.578000",
          "153849.078000",
          "153851.578000",
          "153854.078000",
          "153856.578000",
          "153859.078000",
          "153901.578000",
          "153904.078000",
          "153906.578000",
          "153909.078000",
          "153911.578000",
          "153914.078000",
          "153916.578000",
          "153919.078000",
          "153921.578000",
          "153924.078000",
          "153926.578000",
          "153929.078000",
          "153931.578000",
          "153934.078000",
          "153936.578000",
          "153939.078000",
          "153941.578000",
          "153944.078000",
          "153946.578000",
          "153949.078000",
          "153951.578000",
          "153954.078000",
          "153956.218000"
        ],
        "InstanceNumber": [
          1,
          2,
          3,
          4,
          5,
          6,
          7,
          8,
          9,
          10,
          11,
          12,
          13,
          14,
          15,
          16,
          17,
          18,
          19,
          20,
          21,
          22,
          23,
          24,
          25,
          26,
          27,
          28,
          29,
          30,
          31,
          32,
          33,
          34,
          35,
          36,
          37,
          38,
          39,
          40,
          41,
          42,
          43,
          44,
          45,
          46,
          47,
          48,
          49,
          50,
          51,
          52,
          53,
          54,
          55,
          56,
          57,
          58,
          59,
          60,
          61,
          62,
          63,
          64,
          65,
          66,
          67,
          68,
          69,
          70,
          71,
          72,
          73,
          74,
          75,
          76,
          77,
          78,
          79,
          80,
          81,
          82,
          83,
          84,
          85,
          86,
          87,
          88,
          89,
          90,
          91,
          92,
          93,
          94,
          95,
          96,
          97,
          98,
          99,
          100,
          101,
          102,
          103,
          104,
          105,
          106,
          107,
          108,
          109,
          110,
          111,
          112,
          113,
          114,
          115,
          116,
          117,
          118,
          119,
          120,
          121,
          122,
          123,
          124,
          125,
          126,
          127,
          128,
          129,
          130,
          131,
          132,
          133,
          134,
          135,
          136,
          137,
          138,
          139,
          140,
          141,
          142,
          143,
          144,
          145,
          146,
          147,
          148,
          149,
          150,
          151,
          152,
          153,
          154,
          155,
          156,
          157,
          158,
          159,
          160,
          161,
          162,
          163,
          164
        ],
        "LargestImagePixelValue": [
          1369,
          1249,
          1443,
          1197,
          1204,
          1203,
          1245,
          1205,
          1211,
          1233,
          1232,
          1207,
          1212,
          1234,
          1222,
          1227,
          1301,
          1204,
          1198,
          1204,
          1218,
          1221,
          1221,
          1214,
          1286,
          1344,
          1270,
          1217,
          1304,
          1249,
          1261,
          1267,
          1230,
          1221,
          1230,
          1267,
          1214,
          1214,
          1369,
          1335,
          1217,
          1228,
          1338,
          1277,
          1202,
          1248,
          1228,
          1202,
          1210,
          1271,
          1188,
          1231,
          1268,
          1195,
          1285,
          1231,
          1173,
          1214,
          1204,
          1262,
          1259,
          1242,
          1222,
          1245,
          1179,
          1192,
          1189,
          1219,
          1208,
          1208,
          1204,
          1211,
          1337,
          1266,
          1392,
          1213,
          1254,
          1173,
          1277,
          1317,
          1220,
          1284,
          1349,
          1196,
          1234,
          1223,
          1222,
          1267,
          1276,
          1312,
          1307,
          1206,
          1279,
          1209,
          1332,
          1241,
          1209,
          1279,
          1311,
          1195,
          1184,
          1245,
          1265,
          1212,
          1283,
          1175,
          1205,
          1268,
          1317,
          1340,
          1301,
          1264,
          1303,
          1204,
          1193,
          1190,
          1272,
          1246,
          1256,
          1198,
          1325,
          1218,
          1230,
          1319,
          1252,
          1188,
          1265,
          1225,
          1242,
          1264,
          1303,
          1228,
          1207,
          1237,
          1192,
          1275,
          1225,
          1238,
          1194,
          1230,
          1340,
          1229,
          1206,
          1321,
          1268,
          1250,
          1241,
          1202,
          1349,
          1219,
          1212,
          1199,
          1205,
          1194,
          1248,
          1301,
          1215,
          1216,
          1350,
          1204,
          1282,
          1208,
          1220,
          1404
        ],
        "WindowCenter": [
          608.0,
          608.0,
          612.0,
          610.0,
          611.0,
          609.0,
          611.0,
          609.0,
          606.0,
          610.0,
          609.0,
          609.0,
          609.0,
          609.0,
          609.0,
          607.0,
          605.0,
          608.0,
          608.0,
          605.0,
          609.0,
          607.0,
          607.0,
          606.0,
          607.0,
          606.0,
          609.0,
          607.0,
          608.0,
          606.0,
          611.0,
          606.0,
          605.0,
          606.0,
          608.0,
          607.0,
          612.0,
          594.0,
          602.0,
          612.0,
          608.0,
          608.0,
          610.0,
          611.0,
          608.0,
          610.0,
          607.0,
          611.0,
          607.0,
          611.0,
          607.0,
          607.0,
          609.0,
          609.0,
          609.0,
          604.0,
          608.0,
          610.0,
          609.0,
          604.0,
          609.0,
          609.0,
          606.0,
          605.0,
          608.0,
          610.0,
          611.0,
          608.0,
          608.0,
          611.0,
          610.0,
          609.0,
          611.0,
          611.0,
          610.0,
          607.0,
          609.0,
          608.0,
          612.0,
          607.0,
          605.0,
          607.0,
          607.0,
          610.0,
          607.0,
          608.0,
          610.0,
          612.0,
          609.0,
          611.0,
          612.0,
          607.0,
          611.0,
          611.0,
          609.0,
          608.0,
          609.0,
          607.0,
          611.0,
          610.0,
          609.0,
          610.0,
          607.0,
          606.0,
          610.0,
          608.0,
          606.0,
          608.0,
          607.0,
          605.0,
          610.0,
          609.0,
          605.0,
          606.0,
          607.0,
          607.0,
          609.0,
          613.0,
          607.0,
          607.0,
          607.0,
          605.0,
          609.0,
          606.0,
          606.0,
          611.0,
          609.0,
          605.0,
          606.0,
          611.0,
          607.0,
          611.0,
          610.0,
          607.0,
          610.0,
          609.0,
          607.0,
          610.0,
          606.0,
          610.0,
          607.0,
          609.0,
          609.0,
          606.0,
          605.0,
          606.0,
          611.0,
          610.0,
          607.0,
