{
  "aor": 0.017728048780487803,
  "aqi": 0.019975262439024387,
  "bids_meta": {
    "AcquisitionMatrixPE": 64,
    "AcquisitionNumber": 1,
    "AcquisitionTime": "15:15:55.887500",
    "BandwidthPerPixelPhaseEncode": 26.483,
    "BaseResolution": 64,
    "BodyPartExamined": "HEAD",
    "CogAtlasID": "TODO",
    "ConversionSoftware": "dcm2niix",
    "ConversionSoftwareVersion": "v1.0.20171017 GCC6.3.0",
    "DerivedVendorReportedEchoSpacing": 0.000590001,
    "DeviceSerialNumber": "35177",
    "DwellTime": 4.1e-06,
    "EchoTime": 0.027,
    "EffectiveEchoSpacing": 0.000590001,
    "FlipAngle": 90,
    "ImageOrientationPatientDICOM": [
      0.995416,
      0.0555592,
      0.0778464,
      -0.0584318,
      0.997673,
      0.0351203
    ],
    "ImageType": [
      "ORIGINAL",
      "PRIMARY",
      "M",
      "ND",
      "NORM",
      "MOSAIC"
    ],
    "InPlanePhaseEncodingDirectionDICOM": "COL",
    "InstitutionAddress": "Scott_Ave._4525_St._Louis_MO_US_63110",
    "InstitutionName": "Washington_University",
    "InstitutionalDepartmentName": "Department",
    "MRAcquisitionType": "2D",
    "MagneticFieldStrength": 3,
    "Manufacturer": "Siemens",
    "ManufacturersModelName": "TrioTim",
    "Modality": "MR",
    "PartialFourier": 1,
    "PatientPosition": "HFS",
    "PercentPhaseFOV": 100,
    "PhaseEncodingDirection": "j-",
    "PhaseEncodingSteps": 64,
    "PhaseResolution": 1,
    "PixelBandwidth": 1905,
    "ProcedureStepDescription": "head_GREENE",
    "ProtocolName": "ep2d_bold_rest1",
    "PulseSequenceDetails": "%SiemensSeq%_ep2d_bold",
    "ReceiveCoilName": "HeadMatrix",
    "ReconMatrixPE": 64,
    "RepetitionTime": 2.5,
    "SAR": 0.131919,
    "ScanOptions": "FS",
    "ScanningSequence": "EP",
    "SequenceName": "_epfid2d1_64",
    "SequenceVariant": "SK",
    "SeriesDescription": "ep2d_bold_rest1",
    "SeriesNumber": 5,
    "ShimSetting": [
      -168,
      -19566,
      7959,
      293,
      -15,
      -599,
      54,
      -77
    ],
    "SliceThickness": 4,
    "SliceTiming": [
      1.255,
      0,
      1.3325,
      0.0775,
      1.41,
      0.155,
      1.49,
      0.235,
      1.5675,
      0.3125,
      1.645,
      0.3925,
      1.725,
      0.47,
      1.8025,
      0.5475,
      1.8825,
      0.6275,
      1.96,
      0.705,
      2.0375,
      0.7825,
      2.1175,
      0.8625,
      2.195,
      0.94,
      2.2725,
      1.02,
      2.3525,
      1.0975,
      2.43,
      1.175
    ],
    "SoftwareVersions": "syngo_MR_B17",
    "SpacingBetweenSlices": 4,
    "StationName": "MRC35177",
    "TaskName": "restbaseline",
    "TotalReadoutTime": 0.0371701,
    "TxRefAmp": 338.66,
    "dataset": "ds000256",
    "dcmmeta_affine": [
      [
        -3.9816641807556152,
        -0.23372702300548553,
        0.3028559982776642,
        130.40554809570312
      ],
      [
        -0.2222367376089096,
        3.9906938076019287,
        0.15803197026252747,
        -129.5867462158203
      ],
      [
        0.31138551235198975,
        -0.1404811441898346,
        3.9853856563568115,
        -52.14447021484375
      ],
      [
        0.0,
        0.0,
        0.0,
        1.0
      ]
    ],
    "dcmmeta_reorient_transform": [
      [
        0.0,
        -1.0,
        0.0,
        63.0
      ],
      [
        1.0,
        0.0,
        0.0,
        0.0
      ],
      [
        0.0,
        0.0,
        1.0,
        0.0
      ],
      [
        0.0,
        0.0,
        0.0,
        1.0
      ]
    ],
    "dcmmeta_shape": [
      64,
      64,
      32,
      164
    ],
    "dcmmeta_slice_dim": 2,
    "dcmmeta_version": 0.6,
    "global": {
      "const": {
        "AccessionNumber": ".",
        "AcquisitionMatrix": [
          64,
          0,
          0,
          64
        ],
        "AngioFlag": "N",
        "BitsAllocated": 16,
        "BitsStored": 12,
        "BodyPartExamined": "HEAD",
        "Columns": 384,
        "DeidentificationMethodCodeSequence": [
          {
            "CodeMeaning": "XNAT Edit Script",
            "CodeValue": "625500",
            "CodingSchemeDesignator": "XNAT",
            "CodingSchemeVersion": "0.1"
          }
        ],
        "EchoNumbers": 1,
        "EchoTime": 27.0,
        "EchoTrainLength": 1,
        "FlipAngle": 90.0,
        "HighBit": 11,
        "ImageOrientationPatient": [
          0.99541605286516,
          0.05555918320862,
          0.07784637987428,
          -0.0584317566844,
          0.99767344123605,
          0.03512028563383
        ],
        "ImagePositionPatient": [
          -715.35068886792,
          -795.89583344521,
          -133.2934485487
        ],
        "ImageType": [
          "ORIGINAL",
          "PRIMARY",
          "M",
          "ND",
          "NORM",
          "MOSAIC"
        ],
        "ImagedNucleus": "1H",
        "ImagingFrequency": 123.256123,
        "InPlanePhaseEncodingDirection": "COL",
        "MRAcquisitionType": "2D",
        "MagneticFieldStrength": 3.0,
        "Manufacturer": "SIEMENS",
        "ManufacturerModelName": "TrioTim",
        "Modality": "MR",
        "NumberOfAverages": 1.0,
        "NumberOfPhaseEncodingSteps": 64,
        "PercentPhaseFieldOfView": 100.0,
        "PercentSampling": 100.0,
        "PerformedProcedureStepStartTime": "150845.312000",
        "PhotometricInterpretation": "MONOCHROME2",
        "PixelBandwidth": 1905.0,
        "PixelRepresentation": 0,
        "PixelSpacing": [
          4.0,
          4.0
        ],
        "PositionReferenceIndicator": "",
        "ProtocolName": "ep2d_bold_rest1",
        "RepetitionTime": 2500.0,
        "Rows": 384,
        "SAR": 0.13191939945791,
        "SamplesPerPixel": 1,
        "ScanOptions": "FS",
        "ScanningSequence": "EP",
        "SequenceName": "*epfid2d1_64",
        "SequenceVariant": "SK",
        "SeriesDescription": "ep2d_bold_rest1",
        "SeriesNumber": 5,
        "SeriesTime": "151557.687000",
        "SliceLocation": -47.200151330892,
        "SliceThickness": 4.0,
        "SmallestImagePixelValue": 0,
        "SoftwareVersions": "syngo MR B17",
        "SpacingBetweenSlices": 3.9999994505461,
        "SpecificCharacterSet": "ISO_IR 100",
        "StudyID": "1",
        "StudyTime": "150845.265000",
        "TransmitCoilName": "Body",
        "VariableFlipAngleFlag": "N",
        "WindowCenterWidthExplanation": "Algo1",
        "dBdt": 0.0
      },
      "slices": {}
    },
    "modality": "bold",
    "subject_id": "CTS235",
    "task_id": "restbaseline",
    "time": {
      "samples": {
        "AcquisitionNumber": [
          1,
          2,
          3,
          4,
          5,
          6,
          7,
          8,
          9,
          10,
          11,
          12,
          13,
          14,
          15,
          16,
          17,
          18,
          19,
          20,
          21,
          22,
          23,
          24,
          25,
          26,
          27,
          28,
          29,
          30,
          31,
          32,
          33,
          34,
          35,
          36,
          37,
          38,
          39,
          40,
          41,
          42,
          43,
          44,
          45,
          46,
          47,
          48,
          49,
          50,
          51,
          52,
          53,
          54,
          55,
          56,
          57,
          58,
          59,
          60,
          61,
          62,
          63,
          64,
          65,
          66,
          67,
          68,
          69,
          70,
          71,
          72,
          73,
          74,
          75,
          76,
          77,
          78,
          79,
          80,
          81,
          82,
          83,
          84,
          85,
          86,
          87,
          88,
          89,
          90,
          91,
          92,
          93,
          94,
          95,
          96,
          97,
          98,
          99,
          100,
          101,
          102,
          103,
          104,
          105,
          106,
          107,
          108,
          109,
          110,
          111,
          112,
          113,
          114,
          115,
          116,
          117,
          118,
          119,
          120,
          121,
          122,
          123,
          124,
          125,
          126,
          127,
          128,
          129,
          130,
          131,
          132,
          133,
          134,
          135,
          136,
          137,
          138,
          139,
          140,
          141,
          142,
          143,
          144,
          145,
          146,
          147,
          148,
          149,
          150,
          151,
          152,
          153,
          154,
          155,
          156,
          157,
          158,
          159,
          160,
          161,
          162,
          163,
          164
        ],
        "AcquisitionTime": [
          "151555.887500",
          "151558.397500",
          "151600.907500",
          "151603.417500",
          "151605.927500",
          "151608.437500",
          "151610.947500",
          "151613.457500",
          "151615.967500",
          "151618.477500",
          "151620.987500",
          "151623.497500",
          "151626.007500",
          "151628.517500",
          "151631.027500",
          "151633.537500",
          "151636.047500",
          "151638.557500",
          "151641.067500",
          "151643.577500",
          "151646.087500",
          "151648.597500",
          "151651.107500",
          "151653.617500",
          "151656.127500",
          "151658.637500",
          "151701.147500",
          "151703.657500",
          "151706.167500",
          "151708.677500",
          "151711.187500",
          "151713.697500",
          "151716.207500",
          "151718.717500",
          "151721.227500",
          "151723.737500",
          "151726.247500",
          "151728.757500",
          "151731.267500",
          "151733.777500",
          "151736.287500",
          "151738.797500",
          "151741.307500",
          "151743.817500",
          "151746.327500",
          "151748.837500",
          "151751.347500",
          "151753.857500",
          "151756.367500",
          "151758.877500",
          "151801.387500",
          "151803.897500",
          "151806.407500",
          "151808.917500",
          "151811.427500",
          "151813.940000",
          "151816.450000",
          "151818.960000",
          "151821.470000",
          "151823.980000",
          "151826.490000",
          "151829.000000",
          "151831.510000",
          "151834.020000",
          "151836.530000",
          "151839.040000",
          "151841.550000",
          "151844.060000",
          "151846.570000",
          "151849.080000",
          "151851.590000",
          "151854.100000",
          "151856.610000",
          "151859.120000",
          "151901.630000",
          "151904.140000",
          "151906.650000",
          "151909.160000",
          "151911.670000",
          "151914.180000",
          "151916.690000",
          "151919.200000",
          "151921.710000",
          "151924.220000",
          "151926.730000",
          "151929.240000",
          "151931.750000",
          "151934.260000",
          "151936.770000",
          "151939.280000",
          "151941.790000",
          "151944.300000",
          "151946.810000",
          "151949.320000",
          "151951.830000",
          "151954.340000",
          "151956.850000",
          "151959.360000",
          "152001.870000",
          "152004.380000",
          "152006.890000",
          "152009.400000",
          "152011.910000",
          "152014.420000",
          "152016.930000",
          "152019.440000",
          "152021.950000",
          "152024.460000",
          "152026.970000",
          "152029.480000",
          "152031.990000",
          "152034.500000",
          "152037.010000",
          "152039.520000",
          "152042.030000",
          "152044.540000",
          "152047.050000",
          "152049.562500",
          "152052.072500",
          "152054.582500",
          "152057.092500",
          "152059.602500",
          "152102.112500",
          "152104.622500",
          "152107.132500",
          "152109.642500",
          "152112.152500",
          "152114.662500",
          "152117.172500",
          "152119.682500",
          "152122.192500",
          "152124.702500",
          "152127.212500",
          "152129.722500",
          "152132.232500",
          "152134.742500",
          "152137.252500",
          "152139.762500",
          "152142.272500",
          "152144.782500",
          "152147.292500",
          "152149.802500",
          "152152.312500",
          "152154.822500",
          "152157.332500",
          "152159.842500",
          "152202.352500",
          "152204.862500",
          "152207.372500",
          "152209.882500",
          "152212.392500",
          "152214.902500",
          "152217.412500",
          "152219.922500",
          "152222.432500",
          "152224.942500",
          "152227.452500",
          "152229.962500",
          "152232.472500",
          "152234.982500",
          "152237.492500",
          "152240.002500",
          "152242.512500",
          "152245.022500"
        ],
        "ContentTime": [
          "151557.687000",
          "151600.187000",
          "151602.687000",
          "151605.187000",
          "151607.687000",
          "151610.187000",
          "151612.687000",
          "151615.187000",
          "151617.687000",
          "151620.187000",
          "151622.687000",
          "151625.187000",
          "151627.687000",
          "151630.187000",
          "151632.687000",
          "151635.187000",
          "151637.687000",
          "151640.187000",
          "151642.687000",
          "151645.187000",
          "151647.687000",
          "151650.187000",
          "151652.687000",
          "151655.187000",
          "151657.687000",
          "151700.187000",
          "151702.687000",
          "151705.187000",
          "151707.687000",
          "151710.187000",
          "151712.687000",
          "151715.187000",
          "151717.687000",
          "151720.187000",
          "151722.687000",
          "151725.187000",
          "151727.687000",
          "151730.187000",
          "151732.687000",
          "151735.187000",
          "151737.687000",
          "151740.187000",
          "151742.687000",
          "151745.187000",
          "151747.687000",
          "151750.187000",
          "151752.687000",
          "151755.187000",
          "151757.687000",
          "151800.187000",
          "151802.687000",
          "151805.187000",
          "151807.687000",
          "151810.187000",
          "151812.687000",
          "151815.187000",
          "151817.687000",
          "151820.187000",
          "151822.687000",
          "151825.187000",
          "151827.687000",
          "151830.187000",
          "151832.687000",
          "151835.187000",
          "151837.687000",
          "151840.187000",
          "151842.687000",
          "151845.187000",
          "151847.687000",
          "151850.187000",
          "151852.687000",
          "151855.187000",
          "151857.687000",
          "151900.187000",
          "151902.687000",
          "151905.187000",
          "151907.687000",
          "151910.187000",
          "151912.687000",
          "151915.187000",
          "151917.687000",
          "151920.187000",
          "151922.687000",
          "151925.187000",
          "151927.687000",
          "151930.187000",
          "151932.687000",
          "151935.187000",
          "151937.687000",
          "151940.187000",
          "151942.687000",
          "151945.187000",
          "151947.687000",
          "151950.187000",
          "151952.687000",
          "151955.187000",
          "151957.687000",
          "152000.187000",
          "152002.687000",
          "152005.187000",
          "152007.687000",
          "152010.187000",
          "152012.687000",
          "152015.187000",
          "152017.687000",
          "152020.187000",
          "152022.687000",
          "152025.187000",
          "152027.687000",
          "152030.187000",
          "152032.687000",
          "152035.187000",
          "152037.687000",
          "152040.187000",
          "152042.687000",
          "152045.187000",
          "152047.687000",
          "152050.187000",
          "152052.687000",
          "152055.187000",
          "152057.687000",
          "152100.187000",
          "152102.687000",
          "152105.187000",
          "152107.687000",
          "152110.187000",
          "152112.687000",
          "152115.187000",
          "152117.687000",
          "152120.187000",
          "152122.687000",
          "152125.187000",
          "152127.687000",
          "152130.187000",
          "152132.687000",
          "152135.187000",
          "152137.687000",
          "152140.187000",
          "152142.687000",
          "152145.187000",
          "152147.687000",
          "152150.187000",
          "152152.687000",
          "152155.187000",
          "152157.687000",
          "152200.187000",
          "152202.687000",
          "152205.187000",
          "152207.687000",
          "152210.187000",
          "152212.687000",
          "152215.187000",
          "152217.687000",
          "152220.187000",
          "152222.687000",
          "152225.187000",
          "152227.687000",
          "152230.187000",
          "152232.687000",
          "152235.187000",
          "152237.687000",
          "152240.187000",
          "152242.687000",
          "152244.890000"
        ],
        "InstanceCreationTime": [
          "151557.687000",
          "151600.187000",
          "151602.687000",
          "151605.187000",
          "151607.687000",
          "151610.187000",
          "151612.687000",
          "151615.187000",
          "151617.687000",
          "151620.187000",
          "151622.687000",
          "151625.187000",
          "151627.687000",
          "151630.187000",
          "151632.687000",
          "151635.187000",
          "151637.687000",
          "151640.187000",
          "151642.687000",
          "151645.187000",
          "151647.687000",
          "151650.187000",
          "151652.687000",
          "151655.187000",
          "151657.687000",
          "151700.187000",
          "151702.687000",
          "151705.187000",
          "151707.687000",
          "151710.187000",
          "151712.687000",
          "151715.187000",
          "151717.687000",
          "151720.187000",
          "151722.687000",
          "151725.187000",
          "151727.687000",
          "151730.187000",
          "151732.687000",
          "151735.187000",
          "151737.687000",
          "151740.187000",
          "151742.687000",
          "151745.187000",
          "151747.687000",
          "151750.187000",
          "151752.687000",
          "151755.187000",
          "151757.687000",
          "151800.187000",
          "151802.687000",
          "151805.187000",
          "151807.687000",
          "151810.187000",
          "151812.687000",
          "151815.187000",
          "151817.687000",
          "151820.187000",
          "151822.687000",
          "151825.187000",
          "151827.687000",
          "151830.187000",
          "151832.687000",
          "151835.187000",
          "151837.687000",
          "151840.187000",
          "151842.687000",
          "151845.187000",
          "151847.687000",
          "151850.187000",
          "151852.687000",
          "151855.187000",
          "151857.687000",
          "151900.187000",
          "151902.687000",
          "151905.187000",
          "151907.687000",
          "151910.187000",
          "151912.687000",
          "151915.187000",
          "151917.687000",
          "151920.187000",
          "151922.687000",
          "151925.187000",
          "151927.687000",
          "151930.187000",
          "151932.687000",
          "151935.187000",
          "151937.687000",
          "151940.187000",
          "151942.687000",
          "151945.187000",
          "151947.687000",
          "151950.187000",
          "151952.687000",
          "151955.187000",
          "151957.687000",
          "152000.187000",
          "152002.687000",
          "152005.187000",
          "152007.687000",
          "152010.187000",
          "152012.687000",
          "152015.187000",
          "152017.687000",
          "152020.187000",
          "152022.687000",
          "152025.187000",
          "152027.687000",
          "152030.187000",
          "152032.687000",
          "152035.187000",
          "152037.687000",
          "152040.187000",
          "152042.687000",
          "152045.187000",
          "152047.687000",
          "152050.187000",
          "152052.687000",
          "152055.187000",
          "152057.687000",
          "152100.187000",
          "152102.687000",
          "152105.187000",
          "152107.687000",
          "152110.187000",
          "152112.687000",
          "152115.187000",
          "152117.687000",
          "152120.187000",
          "152122.687000",
          "152125.187000",
          "152127.687000",
          "152130.187000",
          "152132.687000",
          "152135.187000",
          "152137.687000",
          "152140.187000",
          "152142.687000",
          "152145.187000",
          "152147.687000",
          "152150.187000",
          "152152.687000",
          "152155.187000",
          "152157.687000",
          "152200.187000",
          "152202.687000",
          "152205.187000",
          "152207.687000",
          "152210.187000",
          "152212.687000",
          "152215.187000",
          "152217.687000",
          "152220.187000",
          "152222.687000",
          "152225.187000",
          "152227.687000",
          "152230.187000",
          "152232.687000",
          "152235.187000",
          "152237.687000",
          "152240.187000",
          "152242.687000",
          "152244.890000"
        ],
        "InstanceNumber": [
          1,
          2,
          3,
          4,
          5,
          6,
          7,
          8,
          9,
          10,
          11,
          12,
          13,
          14,
          15,
          16,
          17,
          18,
          19,
          20,
          21,
          22,
          23,
          24,
          25,
          26,
          27,
          28,
          29,
          30,
          31,
          32,
          33,
          34,
          35,
          36,
          37,
          38,
          39,
          40,
          41,
          42,
          43,
          44,
          45,
          46,
          47,
          48,
          49,
          50,
          51,
          52,
          53,
          54,
          55,
          56,
          57,
          58,
          59,
          60,
          61,
          62,
          63,
          64,
          65,
          66,
          67,
          68,
          69,
          70,
          71,
          72,
          73,
          74,
          75,
          76,
          77,
          78,
          79,
          80,
          81,
          82,
          83,
          84,
          85,
          86,
          87,
          88,
          89,
          90,
          91,
          92,
          93,
          94,
          95,
          96,
          97,
          98,
          99,
          100,
          101,
          102,
          103,
          104,
          105,
          106,
          107,
          108,
          109,
          110,
          111,
          112,
          113,
          114,
          115,
          116,
          117,
          118,
          119,
          120,
          121,
          122,
          123,
          124,
          125,
          126,
          127,
          128,
          129,
          130,
          131,
          132,
          133,
          134,
          135,
          136,
          137,
          138,
          139,
          140,
          141,
          142,
          143,
          144,
          145,
          146,
          147,
          148,
          149,
          150,
          151,
          152,
          153,
          154,
          155,
          156,
          157,
          158,
          159,
          160,
          161,
          162,
          163,
          164
        ],
        "LargestImagePixelValue": [
          1230,
          1223,
          1228,
          1247,
          1300,
          1220,
          1217,
          1260,
          1212,
          1230,
          1247,
          1221,
          1216,
          1218,
          1210,
          1213,
          1223,
          1228,
          1233,
          1228,
          1209,
          1283,
          1242,
          1478,
          1371,
          1241,
          1235,
          1230,
          1372,
          1229,
          1283,
          1203,
          1213,
          1216,
          1204,
          1275,
          1201,
          1214,
          1255,
          1197,
          1216,
          1203,
          1329,
          1202,
          1204,
          1220,
          1215,
          1291,
          1201,
          1312,
          1204,
          1211,
          1262,
          1205,
          1236,
          1268,
          1245,
          1235,
          1348,
          1429,
          1454,
          1254,
          1199,
          1193,
          1216,
          1260,
          1186,
          1255,
          1205,
          1215,
          1260,
          1306,
          1260,
          1369,
          1239,
          1217,
          1249,
          1243,
          1280,
          1227,
          1274,
          1292,
          1215,
          1229,
          1221,
          1307,
          1236,
          1289,
          1205,
          1205,
          1285,
          1242,
          1200,
          1220,
          1305,
          1322,
          1298,
          1244,
          1222,
          1255,
          1230,
          1205,
          1213,
          1208,
          1213,
          1217,
          1207,
          1203,
          1220,
          1198,
          1201,
          1299,
          1292,
          1199,
          1184,
          1242,
          1231,
          1205,
          1215,
          1320,
          1219,
          1209,
          1215,
          1196,
          1199,
          1196,
          1216,
          1200,
          1198,
          1306,
          1196,
          1219,
          1268,
          1309,
          1204,
          1217,
          1204,
          1321,
          1200,
          1190,
          1204,
          1275,
          1220,
          1200,
          1207,
          1221,
          1180,
          1258,
          1495,
          1228,
          1207,
          1273,
          1237,
          1251,
          1238,
          1219,
          1227,
          1228,
          1206,
          1213,
          1250,
          1234,
          1276,
          1255
        ],
        "WindowCenter": [
          608.0,
          611.0,
          607.0,
          606.0,
          609.0,
          604.0,
          606.0,
          609.0,
          610.0,
          610.0,
          604.0,
          608.0,
          605.0,
          606.0,
          607.0,
          606.0,
          609.0,
          609.0,
          606.0,
          606.0,
          594.0,
          600.0,
          605.0,
          608.0,
          603.0,
          608.0,
          610.0,
          611.0,
          604.0,
          608.0,
          609.0,
          607.0,
          604.0,
          608.0,
          611.0,
          611.0,
          609.0,
          610.0,
          610.0,
          609.0,
          608.0,
          608.0,
          610.0,
          609.0,
          608.0,
          606.0,
          606.0,
          609.0,
          604.0,
          608.0,
          603.0,
          608.0,
          607.0,
          604.0,
          608.0,
          608.0,
          608.0,
          601.0,
          608.0,
          607.0,
          602.0,
          606.0,
          605.0,
          602.0,
          604.0,
          597.0,
          609.0,
          608.0,
          607.0,
          609.0,
          611.0,
          609.0,
          609.0,
          611.0,
          609.0,
          609.0,
          611.0,
          608.0,
          611.0,
          610.0,
          606.0,
          610.0,
          610.0,
          609.0,
          604.0,
          610.0,
          609.0,
          610.0,
          609.0,
          610.0,
          609.0,
          610.0,
          610.0,
          607.0,
          610.0,
          610.0,
          610.0,
          609.0,
          610.0,
          612.0,
          608.0,
          609.0,
          609.0,
          609.0,
          611.0,
          609.0,
          606.0,
          610.0,
          608.0,
          608.0,
          604.0,
          609.0,
          608.0,
          608.0,
          608.0,
          606.0,
          609.0,
          609.0,
          609.0,
          610.0,
          609.0,
          606.0,
          609.0,
          610.0,
          608.0,
          608.0,
          609.0,
          608.0,
          610.0,
          607.0,
          609.0,
          611.0,
          607.0,
          611.0,
          610.0,
          609.0,
          606.0,
          611.0,
          604.0,
          605.0,
          606.0,
          607.0,
          610.0,
          609.0,
          606.0,
          610.0,
          591.0,
          613.0,
          610.0,
          606.0,
          604.0,
