{
  "aor": 0.004686829268292683,
  "aqi": 0.009850049085365855,
  "bids_meta": {
    "AcquisitionMatrixPE": 64,
    "AcquisitionNumber": 1,
    "AcquisitionTime": "11:04:4.792500",
    "BandwidthPerPixelPhaseEncode": 26.483,
    "BaseResolution": 64,
    "BodyPartExamined": "HEAD",
    "CogAtlasID": "TODO",
    "ConversionSoftware": "dcm2niix",
    "ConversionSoftwareVersion": "v1.0.20171017 GCC6.3.0",
    "DerivedVendorReportedEchoSpacing": 0.000590001,
    "DeviceSerialNumber": "35177",
    "EchoTime": 0.027,
    "EffectiveEchoSpacing": 0.000590001,
    "FlipAngle": 90,
    "ImageOrientationPatientDICOM": [
      0.999687,
      0.0191939,
      -0.0160729,
      -0.0173115,
      0.993778,
      0.110023
    ],
    "ImageType": [
      "ORIGINAL",
      "PRIMARY",
      "M",
      "ND",
      "NORM",
      "MOSAIC"
    ],
    "InPlanePhaseEncodingDirectionDICOM": "COL",
    "InstitutionAddress": "Scott_Ave._4525_St._Louis_MO_US_63110",
    "InstitutionName": "Washington_University",
    "MRAcquisitionType": "2D",
    "MagneticFieldStrength": 3,
    "Manufacturer": "Siemens",
    "ManufacturersModelName": "TrioTim",
    "Modality": "MR",
    "PartialFourier": 1,
    "PatientPosition": "HFS",
    "PercentPhaseFOV": 100,
    "PhaseEncodingDirection": "j-",
    "PhaseEncodingSteps": 64,
    "PhaseResolution": 1,
    "PixelBandwidth": 1905,
    "ProcedureStepDescription": "head_GREENE",
    "ProtocolName": "ep2d_bold_feedback_rest",
    "PulseSequenceDetails": "%SiemensSeq%_ep2d_bold",
    "ReceiveCoilName": "HeadMatrix",
    "ReconMatrixPE": 64,
    "RepetitionTime": 2.5,
    "SAR": 0.148571,
    "ScanOptions": "FS",
    "ScanningSequence": "EP",
    "SequenceName": "_epfid2d1_64",
    "SequenceVariant": "SK",
    "SeriesDescription": "ep2d_bold_feedback_rest",
    "SeriesNumber": 6,
    "ShimSetting": [
      -238,
      -19598,
      7970,
      192,
      121,
      -575,
      432,
      55
    ],
    "SliceThickness": 4,
    "SliceTiming": [
      1.255,
      0,
      1.335,
      0.08,
      1.4125,
      0.1575,
      1.49,
      0.235,
      1.57,
      0.315,
      1.6475,
      0.3925,
      1.725,
      0.47,
      1.805,
      0.55,
      1.8825,
      0.6275,
      1.96,
      0.7075,
      2.04,
      0.785,
      2.1175,
      0.8625,
      2.1975,
      0.9425,
      2.275,
      1.02,
      2.3525,
      1.0975,
      2.4325,
      1.1775
    ],
    "SoftwareVersions": "syngo_MR_B17",
    "SpacingBetweenSlices": 4,
    "StationName": "MRC35177",
    "TaskName": "restfixationfixed",
    "TotalReadoutTime": 0.0371701,
    "TxRefAmp": 334.858,
    "dataset": "ds000256",
    "dcmmeta_affine": [
      [
        -3.9987480640411377,
        -0.06924600154161453,
        -0.07233866304159164,
        131.82217407226562
      ],
      [
        -0.07677560299634933,
        3.975111961364746,
        0.4388412535190582,
        -137.26507568359375
      ],
      [
        -0.06429159641265869,
        -0.440091997385025,
        3.9751968383789062,
        -16.057140350341797
      ],
      [
        0.0,
        0.0,
        0.0,
        1.0
      ]
    ],
    "dcmmeta_reorient_transform": [
      [
        0.0,
        -1.0,
        0.0,
        63.0
      ],
      [
        1.0,
        0.0,
        0.0,
        0.0
      ],
      [
        0.0,
        0.0,
        1.0,
        0.0
      ],
      [
        0.0,
        0.0,
        0.0,
        1.0
      ]
    ],
    "dcmmeta_shape": [
      64,
      64,
      32,
      164
    ],
    "dcmmeta_slice_dim": 2,
    "dcmmeta_version": 0.6,
    "global": {
      "const": {
        "AccessionNumber": ".",
        "AcquisitionMatrix": [
          64,
          0,
          0,
          64
        ],
        "AngioFlag": "N",
        "BitsAllocated": 16,
        "BitsStored": 12,
        "BodyPartExamined": "HEAD",
        "Columns": 384,
        "DeidentificationMethodCodeSequence": [
          {
            "CodeMeaning": "XNAT Edit Script",
            "CodeValue": "625500",
            "CodingSchemeDesignator": "XNAT",
            "CodingSchemeVersion": "0.1"
          }
        ],
        "EchoNumbers": 1,
        "EchoTime": 27.0,
        "EchoTrainLength": 1,
        "FlipAngle": 90.0,
        "HighBit": 11,
        "ImageOrientationPatient": [
          0.999687,
          0.0191939,
          -0.0160729,
          -0.0173115,
          0.993778,
          0.110023
        ],
        "ImagePositionPatient": [
          -756.18,
          -761.469,
          -103.911
        ],
        "ImageType": [
          "ORIGINAL",
          "PRIMARY",
          "M",
          "ND",
          "NORM",
          "MOSAIC"
        ],
        "ImagedNucleus": "1H",
        "ImagingFrequency": 123.256,
        "InPlanePhaseEncodingDirection": "COL",
        "MRAcquisitionType": "2D",
        "MagneticFieldStrength": 3.0,
        "Manufacturer": "SIEMENS",
        "ManufacturerModelName": "TrioTim",
        "Modality": "MR",
        "NumberOfAverages": 1.0,
        "NumberOfFrames": 1,
        "NumberOfPhaseEncodingSteps": 64,
        "PercentPhaseFieldOfView": 100.0,
        "PercentSampling": 100.0,
        "PerformedProcedureStepStartTime": "104444.187000",
        "PhotometricInterpretation": "MONOCHROME2",
        "PixelBandwidth": 1905.0,
        "PixelRepresentation": 0,
        "PixelSpacing": [
          4.0,
          4.0
        ],
        "ProtocolName": "ep2d_bold_feedback_rest",
        "RepetitionTime": 2500.0,
        "Rows": 384,
        "SAR": 0.148571,
        "SamplesPerPixel": 1,
        "ScanOptions": "FS",
        "ScanningSequence": "EP",
        "SequenceName": "*epfid2d1_64",
        "SequenceVariant": "SK",
        "SeriesDescription": "ep2d_bold_feedback_rest",
        "SeriesNumber": 6,
        "SeriesTime": "110407.234000",
        "SliceLocation": -33.401,
        "SliceThickness": 4.0,
        "SoftwareVersions": "syngo MR B17",
        "SpacingBetweenSlices": 4.0,
        "SpecificCharacterSet": "ISO_IR 100",
        "StudyID": "1",
        "StudyTime": "104444.078000",
        "TransmitCoilName": "Body",
        "VariableFlipAngleFlag": "N",
        "dBdt": 0.0
      },
      "slices": {}
    },
    "modality": "bold",
    "subject_id": "CTS207",
    "task_id": "restfixationfixed",
    "time": {
      "samples": {
        "AcquisitionNumber": [
          1,
          2,
          3,
          4,
          5,
          6,
          7,
          8,
          9,
          10,
          11,
          12,
          13,
          14,
          15,
          16,
          17,
          18,
          19,
          20,
          21,
          22,
          23,
          24,
          25,
          26,
          27,
          28,
          29,
          30,
          31,
          32,
          33,
          34,
          35,
          36,
          37,
          38,
          39,
          40,
          41,
          42,
          43,
          44,
          45,
          46,
          47,
          48,
          49,
          50,
          51,
          52,
          53,
          54,
          55,
          56,
          57,
          58,
          59,
          60,
          61,
          62,
          63,
          64,
          65,
          66,
          67,
          68,
          69,
          70,
          71,
          72,
          73,
          74,
          75,
          76,
          77,
          78,
          79,
          80,
          81,
          82,
          83,
          84,
          85,
          86,
          87,
          88,
          89,
          90,
          91,
          92,
          93,
          94,
          95,
          96,
          97,
          98,
          99,
          100,
          101,
          102,
          103,
          104,
          105,
          106,
          107,
          108,
          109,
          110,
          111,
          112,
          113,
          114,
          115,
          116,
          117,
          118,
          119,
          120,
          121,
          122,
          123,
          124,
          125,
          126,
          127,
          128,
          129,
          130,
          131,
          132,
          133,
          134,
          135,
          136,
          137,
          138,
          139,
          140,
          141,
          142,
          143,
          144,
          145,
          146,
          147,
          148,
          149,
          150,
          151,
          152,
          153,
          154,
          155,
          156,
          157,
          158,
          159,
          160,
          161,
          162,
          163,
          164
        ],
        "AcquisitionTime": [
          "110404.792500",
          "110407.302500",
          "110409.812500",
          "110412.322500",
          "110414.832500",
          "110417.342500",
          "110419.852500",
          "110422.362500",
          "110424.872500",
          "110427.382500",
          "110429.892500",
          "110432.402500",
          "110434.912500",
          "110437.422500",
          "110439.932500",
          "110442.442500",
          "110444.952500",
          "110447.462500",
          "110449.972500",
          "110452.482500",
          "110454.992500",
          "110457.502500",
          "110500.012500",
          "110502.525000",
          "110505.035000",
          "110507.545000",
          "110510.055000",
          "110512.565000",
          "110515.075000",
          "110517.585000",
          "110520.095000",
          "110522.605000",
          "110525.115000",
          "110527.625000",
          "110530.135000",
          "110532.645000",
          "110535.155000",
          "110537.665000",
          "110540.175000",
          "110542.685000",
          "110545.195000",
          "110547.705000",
          "110550.215000",
          "110552.725000",
          "110555.235000",
          "110557.745000",
          "110600.255000",
          "110602.765000",
          "110605.275000",
          "110607.785000",
          "110610.295000",
          "110612.805000",
          "110615.315000",
          "110617.825000",
          "110620.335000",
          "110622.845000",
          "110625.355000",
          "110627.865000",
          "110630.375000",
          "110632.885000",
          "110635.395000",
          "110637.905000",
          "110640.415000",
          "110642.925000",
          "110645.435000",
          "110647.945000",
          "110650.455000",
          "110652.965000",
          "110655.475000",
          "110657.985000",
          "110700.495000",
          "110703.005000",
          "110705.515000",
          "110708.025000",
          "110710.535000",
          "110713.045000",
          "110715.555000",
          "110718.065000",
          "110720.575000",
          "110723.085000",
          "110725.595000",
          "110728.105000",
          "110730.615000",
          "110733.125000",
          "110735.635000",
          "110738.147500",
          "110740.657500",
          "110743.167500",
          "110745.677500",
          "110748.187500",
          "110750.697500",
          "110753.207500",
          "110755.717500",
          "110758.227500",
          "110800.737500",
          "110803.247500",
          "110805.757500",
          "110808.267500",
          "110810.777500",
          "110813.287500",
          "110815.797500",
          "110818.307500",
          "110820.817500",
          "110823.327500",
          "110825.837500",
          "110828.347500",
          "110830.857500",
          "110833.367500",
          "110835.877500",
          "110838.387500",
          "110840.897500",
          "110843.407500",
          "110845.917500",
          "110848.427500",
          "110850.937500",
          "110853.447500",
          "110855.957500",
          "110858.467500",
          "110900.977500",
          "110903.487500",
          "110905.997500",
          "110908.507500",
          "110911.017500",
          "110913.527500",
          "110916.037500",
          "110918.547500",
          "110921.057500",
          "110923.567500",
          "110926.077500",
          "110928.587500",
          "110931.097500",
          "110933.607500",
          "110936.117500",
          "110938.627500",
          "110941.137500",
          "110943.647500",
          "110946.157500",
          "110948.667500",
          "110951.177500",
          "110953.687500",
          "110956.197500",
          "110958.707500",
          "111001.217500",
          "111003.727500",
          "111006.237500",
          "111008.747500",
          "111011.257500",
          "111013.770000",
          "111016.280000",
          "111018.790000",
          "111021.300000",
          "111023.810000",
          "111026.320000",
          "111028.830000",
          "111031.340000",
          "111033.850000",
          "111036.360000",
          "111038.870000",
          "111041.380000",
          "111043.890000",
          "111046.400000",
          "111048.910000",
          "111051.420000",
          "111053.930000"
        ],
        "ContentTime": [
          "110407.234000",
          "110409.734000",
          "110412.234000",
          "110414.734000",
          "110417.234000",
          "110419.734000",
          "110422.234000",
          "110424.734000",
          "110427.234000",
          "110429.734000",
          "110432.234000",
          "110434.734000",
          "110437.234000",
          "110439.734000",
          "110442.234000",
          "110444.734000",
          "110447.234000",
          "110449.734000",
          "110452.234000",
          "110454.734000",
          "110457.234000",
          "110459.734000",
          "110502.234000",
          "110504.734000",
          "110507.234000",
          "110509.734000",
          "110512.234000",
          "110514.734000",
          "110517.234000",
          "110519.734000",
          "110522.234000",
          "110524.734000",
          "110527.234000",
          "110529.734000",
          "110532.234000",
          "110534.734000",
          "110537.234000",
          "110539.734000",
          "110542.234000",
          "110544.734000",
          "110547.234000",
          "110549.734000",
          "110552.234000",
          "110554.734000",
          "110557.234000",
          "110559.734000",
          "110602.234000",
          "110604.734000",
          "110607.234000",
          "110609.734000",
          "110612.234000",
          "110614.734000",
          "110617.234000",
          "110619.734000",
          "110622.234000",
          "110624.734000",
          "110627.234000",
          "110629.734000",
          "110632.234000",
          "110634.734000",
          "110637.234000",
          "110639.734000",
          "110642.234000",
          "110644.734000",
          "110647.234000",
          "110649.734000",
          "110652.234000",
          "110654.734000",
          "110657.234000",
          "110659.734000",
          "110702.234000",
          "110704.734000",
          "110707.234000",
          "110709.734000",
          "110712.234000",
          "110714.734000",
          "110717.234000",
          "110719.734000",
          "110722.234000",
          "110724.734000",
          "110727.234000",
          "110729.734000",
          "110732.234000",
          "110734.734000",
          "110737.234000",
          "110739.734000",
          "110742.234000",
          "110744.734000",
          "110747.234000",
          "110749.734000",
          "110752.234000",
          "110754.734000",
          "110757.234000",
          "110759.734000",
          "110802.234000",
          "110804.734000",
          "110807.234000",
          "110809.734000",
          "110812.234000",
          "110814.734000",
          "110817.234000",
          "110819.734000",
          "110822.234000",
          "110824.734000",
          "110827.234000",
          "110829.734000",
          "110832.234000",
          "110834.734000",
          "110837.234000",
          "110839.734000",
          "110842.234000",
          "110844.734000",
          "110847.234000",
          "110849.734000",
          "110852.234000",
          "110854.734000",
          "110857.234000",
          "110859.734000",
          "110902.234000",
          "110904.734000",
          "110907.234000",
          "110909.734000",
          "110912.234000",
          "110914.734000",
          "110917.234000",
          "110919.734000",
          "110922.234000",
          "110924.734000",
          "110927.234000",
          "110929.734000",
          "110932.234000",
          "110934.734000",
          "110937.234000",
          "110939.734000",
          "110942.234000",
          "110944.734000",
          "110947.234000",
          "110949.734000",
          "110952.234000",
          "110954.734000",
          "110957.234000",
          "110959.734000",
          "111002.234000",
          "111004.734000",
          "111007.234000",
          "111009.734000",
          "111012.234000",
          "111014.734000",
          "111017.234000",
          "111019.734000",
          "111022.234000",
          "111024.734000",
          "111027.234000",
          "111029.734000",
          "111032.234000",
          "111034.734000",
          "111037.234000",
          "111039.734000",
          "111042.234000",
          "111044.734000",
          "111047.234000",
          "111049.734000",
          "111052.234000",
          "111054.593000"
        ],
        "InstanceNumber": [
          1,
          2,
          3,
          4,
          5,
          6,
          7,
          8,
          9,
          10,
          11,
          12,
          13,
          14,
          15,
          16,
          17,
          18,
          19,
          20,
          21,
          22,
          23,
          24,
          25,
          26,
          27,
          28,
          29,
          30,
          31,
          32,
          33,
          34,
          35,
          36,
          37,
          38,
          39,
          40,
          41,
          42,
          43,
          44,
          45,
          46,
          47,
          48,
          49,
          50,
          51,
          52,
          53,
          54,
          55,
          56,
          57,
          58,
          59,
          60,
          61,
          62,
          63,
          64,
          65,
          66,
          67,
          68,
          69,
          70,
          71,
          72,
          73,
          74,
          75,
          76,
          77,
          78,
          79,
          80,
          81,
          82,
          83,
          84,
          85,
          86,
          87,
          88,
          89,
          90,
          91,
          92,
          93,
          94,
          95,
          96,
          97,
          98,
          99,
          100,
          101,
          102,
          103,
          104,
          105,
          106,
          107,
          108,
          109,
          110,
          111,
          112,
          113,
          114,
          115,
          116,
          117,
          118,
          119,
          120,
          121,
          122,
          123,
          124,
          125,
          126,
          127,
          128,
          129,
          130,
          131,
          132,
          133,
          134,
          135,
          136,
          137,
          138,
          139,
          140,
          141,
          142,
          143,
          144,
          145,
          146,
          147,
          148,
          149,
          150,
          151,
          152,
          153,
          154,
          155,
          156,
          157,
          158,
          159,
          160,
          161,
          162,
          163,
          164
        ],
        "WindowCenter": [
          694.0,
          691.0,
          692.0,
          693.0,
          692.0,
          691.0,
          691.0,
          692.0,
          693.0,
          693.0,
          694.0,
          694.0,
          693.0,
          691.0,
          690.0,
          693.0,
          693.0,
          691.0,
          690.0,
          693.0,
          690.0,
          692.0,
          694.0,
          695.0,
          693.0,
          694.0,
          691.0,
          692.0,
          691.0,
          694.0,
          693.0,
          692.0,
          694.0,
          693.0,
          691.0,
          693.0,
          692.0,
          693.0,
          694.0,
          693.0,
          690.0,
          692.0,
          693.0,
          693.0,
          693.0,
          691.0,
          693.0,
          693.0,
          695.0,
          693.0,
          693.0,
          690.0,
          690.0,
          690.0,
          692.0,
          692.0,
          691.0,
          692.0,
          694.0,
          693.0,
          694.0,
          694.0,
          693.0,
          692.0,
          691.0,
          692.0,
          693.0,
          693.0,
          691.0,
          692.0,
          692.0,
          692.0,
          693.0,
          691.0,
          693.0,
          691.0,
          692.0,
          692.0,
          692.0,
          693.0,
          693.0,
          692.0,
          691.0,
          693.0,
          693.0,
          693.0,
          694.0,
          692.0,
          692.0,
          690.0,
          693.0,
          690.0,
          689.0,
          694.0,
          694.0,
          691.0,
          692.0,
          692.0,
          690.0,
          692.0,
          694.0,
          693.0,
          694.0,
          692.0,
          693.0,
          692.0,
          692.0,
          693.0,
          693.0,
          693.0,
          693.0,
          694.0,
          694.0,
          693.0,
          692.0,
          694.0,
          692.0,
          694.0,
          691.0,
          693.0,
          693.0,
          693.0,
          691.0,
          693.0,
          693.0,
          695.0,
          691.0,
          690.0,
          692.0,
          692.0,
          693.0,
          691.0,
          692.0,
          693.0,
          691.0,
          693.0,
          693.0,
          692.0,
          692.0,
          692.0,
          693.0,
          692.0,
          692.0,
          692.0,
          691.0,
          692.0,
          691.0,
          691.0,
          691.0,
          693.0,
          692.0,
          692.0,
          694.0,
          695.0,
          693.0,
          692.0,
          694.0,
          694.0,
          693.0,
          692.0,
          693.0,
          694.0,
          694.0,
          693.0
        ],
        "WindowWidth": [
          1518.0,
          1512.0,
          1514.0,
          1517.0,
          1514.0,
          1512.0,
          1511.0,
          1514.0,
          1515.0,
          1515.0,
          1518.0,
          1519.0,
          1516.0,
          1512.0,
          1511.0,
          1515.0,
          1515.0,
          1512.0,
          1507.0,
          1514.0,
          1509.0,
          1514.0,
          1517.0,
          1522.0,
          1517.0,
          1518.0,
          1512.0,
          1513.0,
          1513.0,
          1518.0,
          1516.0,
          1515.0,
          1518.0,
          1515.0,
          1514.0,
          1517.0,
          1515.0,
          1515.0,
          1518.0,
          1515.0,
          1510.0,
          1514.0,
          1517.0,
          1516.0,
          1516.0,
          1513.0,
          1516.0,
          1517.0,
          1521.0,
          1515.0,
          1516.0,
          1509.0,
          1508.0,
          1509.0,
          1513.0,
          1513.0,
          1512.0,
          1515.0,
          1519.0,
          1515.0,
          1518.0,
          1517.0,
          1517.0,
          1514.0,
          1513.0,
          1514.0,
          1516.0,
          1515.0,
          1512.0,
          1515.0,
          1514.0,
          1513.0,
          1515.0,
          1512.0,
          1514.0,
          1511.0,
          1513.0,
          1513.0,
          1515.0,
          1514.0,
          1514.0,
          1514.0,
          1511.0,
          1516.0,
          1517.0,
          1518.0,
          1518.0,
          1513.0,
          1512.0,
          1508.0,
          1514.0,
          1507.0,
          1507.0,
          1516.0,
          1516.0,
          1512.0,
          1513.0,
          1514.0,
          1510.0,
          1513.0,
          1518.0,
          1515.0,
          1517.0,
          1515.0,
          1517.0,
          1515.0,
          1514.0,
          1515.0,
          1515.0,
          1516.0,
          1515.0,
          1518.0,
          1517.0,
          1516.0,
          1514.0,
          1518.0,
          1514.0,
          1518.0,
          1513.0,
          1516.0,
          1515.0,
          1516.0,
          1511.0,
          1516.0,
          1515.0,
          1520.0,
          1511.0,
          1510.0,
          1512.0,
          1513.0,
          1516.0,
          1511.0,
          1514.0,
          1516.0,
          1512.0,
          1515.0,
          1515.0,
          1514.0,
          1514.0,
          1513.0,
          1515.0,
          1513.0,
          1513.0,
          1512.0,
          1512.0,
          1512.0,
          1511.0,
          1510.0,
          1510.0,
          1515.0,
          1513.0,
          1514.0,
          1517.0,
          1521.0,
          1516.0,
          1515.0,
          1518.0,
          1518.0,
          1516.0,
          1515.0,
          1517.0,
          1520.0,
          1520.0,
          1517.0
        ]
      },
      "slices": {}
    }
  },
  "dummy_trs": 0,
  "dvars_nstd": 21.17959607570551,
  "dvars_std": 1.3370721093865032,
  "dvars_vstd": 0.993401431595092,
  "efc": 0.4384101857673217,
  "fber": 49890.5625,
  "fd_mean": 0.23237576749401556,
  "fd_num": 67,
  "fd_perc": 40.853658536585364,
  "fwhm_avg": 1.7394608333333332,
  "fwhm_x": 1.59362,
  "fwhm_y": 1.8930575,
  "fwhm_z": 1.731705,
  "gcor": 0.0195137,
  "gsr_x": -0.01524707768112421,
  "gsr_y": 0.00954033900052309,
  "provenance": {
    "md5sum": "974e6c4b871f1c4346332cfff8d5b94b",
    "settings": {
      "fd_thres": 0.2,
      "testing": false
    },
    "software": "mriqc",
    "version": "22.0.0rc1",
    "webapi_port": null,
    "webapi_url": "https://mriqc.nimh.nih.gov/api/v1"
  },
  "size_t": 164,
  "size_x": 64,
  "size_y": 64,
  "size_z": 32,
  "snr": 8.088432914481357,
  "spacing_tr": 2.5,
  "spacing_x": 4.0,
  "spacing_y": 4.0,
  "spacing_z": 4.0,
  "summary_bg_k": 60.33507839403279,
  "summary_bg_mad": 3.299693819663844,
  "summary_bg_mean": 15.75661563873291,
  "summary_bg_median": 3.9451217651367188,
  "summary_bg_n": 83415.0,
  "summary_bg_p05": 1.1036584377288818,
  "summary_bg_p95": 71.1451171875001,
  "summary_bg_stdv": 39.315494537353516,
  "summary_fg_k": 2.1971031487743007,
  "summary_fg_mad": 107.95876084929387,
  "summary_fg_mean": 905.5309448242188,
  "summary_fg_median": 903.7225341796875,
  "summary_fg_n": 20186.0,
  "summary_fg_p05": 737.0151977539062,
  "summary_fg_p95": 1081.1143188476562,
  "summary_fg_stdv": 111.72747039794922,
  "tsnr": 76.73110071127303
}