{
  "aor": 0.0012228048780487805,
  "aqi": 0.0031434436585365847,
  "bids_meta": {
    "AcquisitionMatrixPE": 64,
    "AcquisitionNumber": 1,
    "AcquisitionTime": "17:56:26.355000",
    "BandwidthPerPixelPhaseEncode": 26.483,
    "BaseResolution": 64,
    "BodyPartExamined": "HEAD",
    "CogAtlasID": "TODO",
    "ConversionSoftware": "dcm2niix",
    "ConversionSoftwareVersion": "v1.0.20171017 GCC6.3.0",
    "DerivedVendorReportedEchoSpacing": 0.000590001,
    "DeviceSerialNumber": "35177",
    "DwellTime": 4.1e-06,
    "EchoTime": 0.027,
    "EffectiveEchoSpacing": 0.000590001,
    "FlipAngle": 90,
    "ImageOrientationPatientDICOM": [
      0.9926,
      -0.120253,
      0.0168676,
      0.118937,
      0.990798,
      0.0645976
    ],
    "ImageType": [
      "ORIGINAL",
      "PRIMARY",
      "M",
      "ND",
      "NORM",
      "MOSAIC"
    ],
    "InPlanePhaseEncodingDirectionDICOM": "COL",
    "InstitutionAddress": "Scott_Ave._4525_St._Louis_MO_US_63110",
    "InstitutionName": "Washington_University",
    "InstitutionalDepartmentName": "Department",
    "MRAcquisitionType": "2D",
    "MagneticFieldStrength": 3,
    "Manufacturer": "Siemens",
    "ManufacturersModelName": "TrioTim",
    "Modality": "MR",
    "PartialFourier": 1,
    "PatientPosition": "HFS",
    "PercentPhaseFOV": 100,
    "PhaseEncodingDirection": "j-",
    "PhaseEncodingSteps": 64,
    "PhaseResolution": 1,
    "PixelBandwidth": 1905,
    "ProcedureStepDescription": "head_GREENE",
    "ProtocolName": "ep2d_bold_ad_rest",
    "PulseSequenceDetails": "%SiemensSeq%_ep2d_bold",
    "ReceiveCoilName": "HeadMatrix",
    "ReconMatrixPE": 64,
    "RepetitionTime": 2.5,
    "SAR": 0.139138,
    "ScanOptions": "FS",
    "ScanningSequence": "EP",
    "SequenceName": "_epfid2d1_64",
    "SequenceVariant": "SK",
    "SeriesDescription": "ep2d_bold_ad_rest",
    "SeriesNumber": 7,
    "ShimSetting": [
      -249,
      -19508,
      7983,
      349,
      -19,
      -648,
      390,
      149
    ],
    "SliceThickness": 4,
    "SliceTiming": [
      1.255,
      0,
      1.3325,
      0.0775,
      1.4125,
      0.1575,
      1.49,
      0.235,
      1.5675,
      0.315,
      1.6475,
      0.3925,
      1.725,
      0.47,
      1.805,
      0.55,
      1.8825,
      0.6275,
      1.96,
      0.705,
      2.04,
      0.785,
      2.1175,
      0.8625,
      2.195,
      0.94,
      2.275,
      1.02,
      2.3525,
      1.0975,
      2.43,
      1.1775
    ],
    "SoftwareVersions": "syngo_MR_B17",
    "SpacingBetweenSlices": 4,
    "StationName": "MRC35177",
    "TaskName": "restfixationadaptive",
    "TotalReadoutTime": 0.0371701,
    "TxRefAmp": 345.329,
    "dataset": "ds000256",
    "dcmmeta_affine": [
      [
        -3.970399856567383,
        0.4757475256919861,
        0.09792178869247437,
        114.83399963378906
      ],
      [
        0.4810115694999695,
        3.963192939758301,
        0.24845358729362488,
        -150.8781280517578
      ],
      [
        0.06747042387723923,
        -0.25839030742645264,
        3.9910764694213867,
        -24.920429229736328
      ],
      [
        0.0,
        0.0,
        0.0,
        1.0
      ]
    ],
    "dcmmeta_reorient_transform": [
      [
        0.0,
        -1.0,
        0.0,
        63.0
      ],
      [
        1.0,
        0.0,
        0.0,
        0.0
      ],
      [
        0.0,
        0.0,
        1.0,
        0.0
      ],
      [
        0.0,
        0.0,
        0.0,
        1.0
      ]
    ],
    "dcmmeta_shape": [
      64,
      64,
      32,
      164
    ],
    "dcmmeta_slice_dim": 2,
    "dcmmeta_version": 0.6,
    "global": {
      "const": {
        "AccessionNumber": ".",
        "AcquisitionMatrix": [
          64,
          0,
          0,
          64
        ],
        "AngioFlag": "N",
        "BitsAllocated": 16,
        "BitsStored": 12,
        "BodyPartExamined": "HEAD",
        "Columns": 384,
        "DeidentificationMethodCodeSequence": [
          {
            "CodeMeaning": "XNAT Edit Script",
            "CodeValue": "625500",
            "CodingSchemeDesignator": "XNAT",
            "CodingSchemeVersion": "0.1"
          }
        ],
        "EchoNumbers": 1,
        "EchoTime": 27.0,
        "EchoTrainLength": 1,
        "FlipAngle": 90.0,
        "HighBit": 11,
        "ImageOrientationPatient": [
          0.99259998293197,
          -0.1202528908944,
          0.01686760549089,
          0.11893688222174,
          0.9907982492275,
          0.06459758025733
        ],
        "ImagePositionPatient": [
          -856.1896908522,
          -655.95205373619,
          -93.336737492884
        ],
        "ImageType": [
          "ORIGINAL",
          "PRIMARY",
          "M",
          "ND",
          "NORM",
          "MOSAIC"
        ],
        "ImagedNucleus": "1H",
        "ImagingFrequency": 123.255837,
        "InPlanePhaseEncodingDirection": "COL",
        "MRAcquisitionType": "2D",
        "MagneticFieldStrength": 3.0,
        "Manufacturer": "SIEMENS",
        "ManufacturerModelName": "TrioTim",
        "Modality": "MR",
        "NumberOfAverages": 1.0,
        "NumberOfPhaseEncodingSteps": 64,
        "PercentPhaseFieldOfView": 100.0,
        "PercentSampling": 100.0,
        "PerformedProcedureStepStartTime": "173121.500000",
        "PhotometricInterpretation": "MONOCHROME2",
        "PixelBandwidth": 1905.0,
        "PixelRepresentation": 0,
        "PixelSpacing": [
          4.0,
          4.0
        ],
        "PositionReferenceIndicator": "",
        "ProtocolName": "ep2d_bold_ad_rest",
        "RepetitionTime": 2500.0,
        "Rows": 384,
        "SAR": 0.1391379066164,
        "SamplesPerPixel": 1,
        "ScanOptions": "FS",
        "ScanningSequence": "EP",
        "SequenceName": "*epfid2d1_64",
        "SequenceVariant": "SK",
        "SeriesDescription": "ep2d_bold_ad_rest",
        "SeriesNumber": 7,
        "SeriesTime": "175629.093000",
        "SliceLocation": -31.425190158991,
        "SliceThickness": 4.0,
        "SmallestImagePixelValue": 0,
        "SoftwareVersions": "syngo MR B17",
        "SpacingBetweenSlices": 4.0000011871548,
        "SpecificCharacterSet": "ISO_IR 100",
        "StudyID": "1",
        "StudyTime": "173121.453000",
        "TransmitCoilName": "Body",
        "VariableFlipAngleFlag": "N",
        "WindowCenterWidthExplanation": "Algo1",
        "dBdt": 0.0
      },
      "slices": {}
    },
    "modality": "bold",
    "subject_id": "CTS241",
    "task_id": "restfixationadaptive",
    "time": {
      "samples": {
        "AcquisitionNumber": [
          1,
          2,
          3,
          4,
          5,
          6,
          7,
          8,
          9,
          10,
          11,
          12,
          13,
          14,
          15,
          16,
          17,
          18,
          19,
          20,
          21,
          22,
          23,
          24,
          25,
          26,
          27,
          28,
          29,
          30,
          31,
          32,
          33,
          34,
          35,
          36,
          37,
          38,
          39,
          40,
          41,
          42,
          43,
          44,
          45,
          46,
          47,
          48,
          49,
          50,
          51,
          52,
          53,
          54,
          55,
          56,
          57,
          58,
          59,
          60,
          61,
          62,
          63,
          64,
          65,
          66,
          67,
          68,
          69,
          70,
          71,
          72,
          73,
          74,
          75,
          76,
          77,
          78,
          79,
          80,
          81,
          82,
          83,
          84,
          85,
          86,
          87,
          88,
          89,
          90,
          91,
          92,
          93,
          94,
          95,
          96,
          97,
          98,
          99,
          100,
          101,
          102,
          103,
          104,
          105,
          106,
          107,
          108,
          109,
          110,
          111,
          112,
          113,
          114,
          115,
          116,
          117,
          118,
          119,
          120,
          121,
          122,
          123,
          124,
          125,
          126,
          127,
          128,
          129,
          130,
          131,
          132,
          133,
          134,
          135,
          136,
          137,
          138,
          139,
          140,
          141,
          142,
          143,
          144,
          145,
          146,
          147,
          148,
          149,
          150,
          151,
          152,
          153,
          154,
          155,
          156,
          157,
          158,
          159,
          160,
          161,
          162,
          163,
          164
        ],
        "AcquisitionTime": [
          "175626.355000",
          "175628.865000",
          "175631.375000",
          "175633.885000",
          "175636.395000",
          "175638.905000",
          "175641.415000",
          "175643.925000",
          "175646.435000",
          "175648.945000",
          "175651.455000",
          "175653.965000",
          "175656.475000",
          "175658.985000",
          "175701.495000",
          "175704.005000",
          "175706.515000",
          "175709.025000",
          "175711.535000",
          "175714.045000",
          "175716.555000",
          "175719.065000",
          "175721.575000",
          "175724.085000",
          "175726.595000",
          "175729.105000",
          "175731.615000",
          "175734.125000",
          "175736.635000",
          "175739.145000",
          "175741.655000",
          "175744.165000",
          "175746.675000",
          "175749.185000",
          "175751.695000",
          "175754.207500",
          "175756.717500",
          "175759.227500",
          "175801.737500",
          "175804.247500",
          "175806.757500",
          "175809.267500",
          "175811.777500",
          "175814.287500",
          "175816.797500",
          "175819.307500",
          "175821.817500",
          "175824.327500",
          "175826.837500",
          "175829.347500",
          "175831.857500",
          "175834.367500",
          "175836.877500",
          "175839.387500",
          "175841.897500",
          "175844.407500",
          "175846.917500",
          "175849.427500",
          "175851.937500",
          "175854.447500",
          "175856.957500",
          "175859.467500",
          "175901.977500",
          "175904.487500",
          "175906.997500",
          "175909.507500",
          "175912.017500",
          "175914.527500",
          "175917.037500",
          "175919.547500",
          "175922.057500",
          "175924.567500",
          "175927.077500",
          "175929.587500",
          "175932.097500",
          "175934.607500",
          "175937.117500",
          "175939.627500",
          "175942.137500",
          "175944.647500",
          "175947.157500",
          "175949.667500",
          "175952.177500",
          "175954.687500",
          "175957.197500",
          "175959.707500",
          "180002.217500",
          "180004.727500",
          "180007.237500",
          "180009.747500",
          "180012.257500",
          "180014.767500",
          "180017.277500",
          "180019.787500",
          "180022.297500",
          "180024.807500",
          "180027.317500",
          "180029.830000",
          "180032.340000",
          "180034.850000",
          "180037.360000",
          "180039.870000",
          "180042.380000",
          "180044.890000",
          "180047.400000",
          "180049.910000",
          "180052.420000",
          "180054.930000",
          "180057.440000",
          "180059.950000",
          "180102.460000",
          "180104.970000",
          "180107.480000",
          "180109.990000",
          "180112.500000",
          "180115.010000",
          "180117.520000",
          "180120.030000",
          "180122.540000",
          "180125.050000",
          "180127.560000",
          "180130.070000",
          "180132.580000",
          "180135.090000",
          "180137.600000",
          "180140.110000",
          "180142.620000",
          "180145.130000",
          "180147.640000",
          "180150.150000",
          "180152.660000",
          "180155.170000",
          "180157.680000",
          "180200.190000",
          "180202.700000",
          "180205.210000",
          "180207.720000",
          "180210.230000",
          "180212.740000",
          "180215.250000",
          "180217.760000",
          "180220.270000",
          "180222.780000",
          "180225.290000",
          "180227.800000",
          "180230.310000",
          "180232.820000",
          "180235.330000",
          "180237.840000",
          "180240.350000",
          "180242.860000",
          "180245.370000",
          "180247.880000",
          "180250.390000",
          "180252.900000",
          "180255.410000",
          "180257.920000",
          "180300.430000",
          "180302.940000",
          "180305.450000",
          "180307.962500",
          "180310.472500",
          "180312.982500",
          "180315.492500"
        ],
        "ContentTime": [
          "175629.093000",
          "175631.593000",
          "175634.093000",
          "175636.593000",
          "175639.093000",
          "175641.593000",
          "175644.093000",
          "175646.593000",
          "175649.093000",
          "175651.593000",
          "175654.093000",
          "175656.593000",
          "175659.093000",
          "175701.593000",
          "175704.093000",
          "175706.593000",
          "175709.093000",
          "175711.593000",
          "175714.093000",
          "175716.593000",
          "175719.093000",
          "175721.593000",
          "175724.093000",
          "175726.593000",
          "175729.093000",
          "175731.593000",
          "175734.093000",
          "175736.593000",
          "175739.093000",
          "175741.593000",
          "175744.093000",
          "175746.593000",
          "175749.093000",
          "175751.593000",
          "175754.093000",
          "175756.593000",
          "175759.093000",
          "175801.593000",
          "175804.093000",
          "175806.593000",
          "175809.093000",
          "175811.593000",
          "175814.109000",
          "175816.593000",
          "175819.093000",
          "175821.593000",
          "175824.093000",
          "175826.593000",
          "175829.093000",
          "175831.593000",
          "175834.093000",
          "175836.593000",
          "175839.093000",
          "175841.593000",
          "175844.093000",
          "175846.593000",
          "175849.093000",
          "175851.593000",
          "175854.093000",
          "175856.593000",
          "175859.093000",
          "175901.593000",
          "175904.093000",
          "175906.593000",
          "175909.093000",
          "175911.593000",
          "175914.093000",
          "175916.593000",
          "175919.093000",
          "175921.593000",
          "175924.093000",
          "175926.593000",
          "175929.093000",
          "175931.593000",
          "175934.093000",
          "175936.593000",
          "175939.093000",
          "175941.593000",
          "175944.093000",
          "175946.593000",
          "175949.093000",
          "175951.593000",
          "175954.093000",
          "175956.593000",
          "175959.093000",
          "180001.593000",
          "180004.093000",
          "180006.593000",
          "180009.093000",
          "180011.593000",
          "180014.093000",
          "180016.593000",
          "180019.093000",
          "180021.593000",
          "180024.093000",
          "180026.593000",
          "180029.093000",
          "180031.593000",
          "180034.093000",
          "180036.593000",
          "180039.093000",
          "180041.593000",
          "180044.093000",
          "180046.593000",
          "180049.093000",
          "180051.593000",
          "180054.093000",
          "180056.593000",
          "180059.093000",
          "180101.593000",
          "180104.093000",
          "180106.593000",
          "180109.093000",
          "180111.593000",
          "180114.093000",
          "180116.593000",
          "180119.093000",
          "180121.593000",
          "180124.093000",
          "180126.593000",
          "180129.093000",
          "180131.593000",
          "180134.093000",
          "180136.593000",
          "180139.093000",
          "180141.593000",
          "180144.093000",
          "180146.593000",
          "180149.093000",
          "180151.593000",
          "180154.093000",
          "180156.593000",
          "180159.093000",
          "180201.593000",
          "180204.093000",
          "180206.593000",
          "180209.093000",
          "180211.593000",
          "180214.093000",
          "180216.593000",
          "180219.093000",
          "180221.593000",
          "180224.093000",
          "180226.593000",
          "180229.093000",
          "180231.593000",
          "180234.093000",
          "180236.593000",
          "180239.093000",
          "180241.593000",
          "180244.093000",
          "180246.593000",
          "180249.093000",
          "180251.593000",
          "180254.093000",
          "180256.593000",
          "180259.093000",
          "180301.593000",
          "180304.093000",
          "180306.593000",
          "180309.093000",
          "180311.593000",
          "180314.093000",
          "180316.296000"
        ],
        "InstanceCreationTime": [
          "175629.093000",
          "175631.593000",
          "175634.093000",
          "175636.593000",
          "175639.093000",
          "175641.593000",
          "175644.093000",
          "175646.593000",
          "175649.093000",
          "175651.593000",
          "175654.093000",
          "175656.593000",
          "175659.093000",
          "175701.593000",
          "175704.093000",
          "175706.593000",
          "175709.093000",
          "175711.593000",
          "175714.093000",
          "175716.593000",
          "175719.093000",
          "175721.593000",
          "175724.093000",
          "175726.593000",
          "175729.093000",
          "175731.593000",
          "175734.093000",
          "175736.593000",
          "175739.093000",
          "175741.593000",
          "175744.093000",
          "175746.593000",
          "175749.093000",
          "175751.593000",
          "175754.093000",
          "175756.593000",
          "175759.093000",
          "175801.593000",
          "175804.093000",
          "175806.593000",
          "175809.093000",
          "175811.593000",
          "175814.109000",
          "175816.593000",
          "175819.093000",
          "175821.593000",
          "175824.093000",
          "175826.593000",
          "175829.093000",
          "175831.593000",
          "175834.093000",
          "175836.593000",
          "175839.093000",
          "175841.593000",
          "175844.093000",
          "175846.593000",
          "175849.093000",
          "175851.593000",
          "175854.093000",
          "175856.593000",
          "175859.093000",
          "175901.593000",
          "175904.093000",
          "175906.593000",
          "175909.093000",
          "175911.593000",
          "175914.093000",
          "175916.593000",
          "175919.093000",
          "175921.593000",
          "175924.093000",
          "175926.593000",
          "175929.093000",
          "175931.593000",
          "175934.093000",
          "175936.593000",
          "175939.093000",
          "175941.593000",
          "175944.093000",
          "175946.593000",
          "175949.093000",
          "175951.593000",
          "175954.093000",
          "175956.593000",
          "175959.093000",
          "180001.593000",
          "180004.093000",
          "180006.593000",
          "180009.093000",
          "180011.593000",
          "180014.093000",
          "180016.593000",
          "180019.093000",
          "180021.593000",
          "180024.093000",
          "180026.593000",
          "180029.093000",
          "180031.593000",
          "180034.093000",
          "180036.593000",
          "180039.093000",
          "180041.593000",
          "180044.093000",
          "180046.593000",
          "180049.093000",
          "180051.593000",
          "180054.093000",
          "180056.593000",
          "180059.093000",
          "180101.593000",
          "180104.093000",
          "180106.593000",
          "180109.093000",
          "180111.593000",
          "180114.093000",
          "180116.593000",
          "180119.093000",
          "180121.593000",
          "180124.093000",
          "180126.593000",
          "180129.093000",
          "180131.593000",
          "180134.093000",
          "180136.593000",
          "180139.093000",
          "180141.593000",
          "180144.093000",
          "180146.593000",
          "180149.093000",
          "180151.593000",
          "180154.093000",
          "180156.593000",
          "180159.093000",
          "180201.593000",
          "180204.093000",
          "180206.593000",
          "180209.093000",
          "180211.593000",
          "180214.093000",
          "180216.593000",
          "180219.093000",
          "180221.593000",
          "180224.093000",
          "180226.593000",
          "180229.093000",
          "180231.593000",
          "180234.093000",
          "180236.593000",
          "180239.093000",
          "180241.593000",
          "180244.093000",
          "180246.593000",
          "180249.093000",
          "180251.593000",
          "180254.093000",
          "180256.593000",
          "180259.093000",
          "180301.593000",
          "180304.093000",
          "180306.593000",
          "180309.093000",
          "180311.593000",
          "180314.093000",
          "180316.296000"
        ],
        "InstanceNumber": [
          1,
          2,
          3,
          4,
          5,
          6,
          7,
          8,
          9,
          10,
          11,
          12,
          13,
          14,
          15,
          16,
          17,
          18,
          19,
          20,
          21,
          22,
          23,
          24,
          25,
          26,
          27,
          28,
          29,
          30,
          31,
          32,
          33,
          34,
          35,
          36,
          37,
          38,
          39,
          40,
          41,
          42,
          43,
          44,
          45,
          46,
          47,
          48,
          49,
          50,
          51,
          52,
          53,
          54,
          55,
          56,
          57,
          58,
          59,
          60,
          61,
          62,
          63,
          64,
          65,
          66,
          67,
          68,
          69,
          70,
          71,
          72,
          73,
          74,
          75,
          76,
          77,
          78,
          79,
          80,
          81,
          82,
          83,
          84,
          85,
          86,
          87,
          88,
          89,
          90,
          91,
          92,
          93,
          94,
          95,
          96,
          97,
          98,
          99,
          100,
          101,
          102,
          103,
          104,
          105,
          106,
          107,
          108,
          109,
          110,
          111,
          112,
          113,
          114,
          115,
          116,
          117,
          118,
          119,
          120,
          121,
          122,
          123,
          124,
          125,
          126,
          127,
          128,
          129,
          130,
          131,
          132,
          133,
          134,
          135,
          136,
          137,
          138,
          139,
          140,
          141,
          142,
          143,
          144,
          145,
          146,
          147,
          148,
          149,
          150,
          151,
          152,
          153,
          154,
          155,
          156,
          157,
          158,
          159,
          160,
          161,
          162,
          163,
          164
        ],
        "LargestImagePixelValue": [
          1430,
          1411,
          1404,
          1427,
          1366,
          1399,
          1390,
          1390,
          1409,
          1430,
          1406,
          1496,
          1397,
          1435,
          1376,
          1407,
          1404,
          1424,
          1382,
          1467,
          1490,
          1406,
          1392,
          1424,
          1561,
          1412,
          1413,
          1401,
          1410,
          1419,
          1437,
          1406,
          1387,
          1412,
          1433,
          1422,
          1402,
          1466,
          1426,
          1530,
          1395,
          1465,
          1437,
          1391,
          1438,
          1465,
          1414,
          1548,
          1383,
          1462,
          1414,
          1437,
          1391,
          1418,
          1414,
          1445,
          1399,
          1433,
          1517,
          1401,
          1443,
          1448,
          1386,
          1396,
          1422,
          1441,
          1392,
          1544,
          1390,
          1457,
          1388,
          1403,
          1437,
          1426,
          1412,
          1400,
          1456,
          1484,
          1389,
          1436,
          1477,
          1407,
          1396,
          1430,
          1394,
          1420,
          1473,
          1403,
          1415,
          1462,
          1425,
          1394,
          1482,
          1419,
          1387,
          1505,
          1398,
          1414,
          1455,
          1434,
          1389,
          1388,
          1399,
          1615,
          1378,
          1469,
          1502,
          1392,
          1414,
          1444,
          1436,
          1385,
          1396,
          1455,
          1402,
          1585,
          1387,
          1413,
          1401,
          1406,
          1386,
          1453,
          1414,
          1502,
          1431,
          1391,
          1442,
          1598,
          1402,
          1380,
          1439,
          1408,
          1429,
          1414,
          1386,
          1446,
          1539,
          1412,
          1404,
          1414,
          1546,
          1433,
          1450,
          1411,
          1445,
          1368,
          1444,
          1512,
          1382,
          1427,
          1443,
          1545,
          1381,
          1428,
          1417,
          1480,
          1419,
          1421,
          1396,
          1395,
          1473,
          1457,
          1379,
          1385
        ],
        "WindowCenter": [
          650.0,
          649.0,
          649.0,
          647.0,
          647.0,
          650.0,
          649.0,
          649.0,
          649.0,
          651.0,
          648.0,
          648.0,
          648.0,
          651.0,
          648.0,
          648.0,
          649.0,
          651.0,
          648.0,
          650.0,
          649.0,
          648.0,
          649.0,
          651.0,
          648.0,
          648.0,
          650.0,
          649.0,
          649.0,
          650.0,
          650.0,
          651.0,
          649.0,
          650.0,
          649.0,
          650.0,
          649.0,
          647.0,
          650.0,
          651.0,
          648.0,
          649.0,
          649.0,
          650.0,
          648.0,
          648.0,
          650.0,
          651.0,
          649.0,
          649.0,
          650.0,
          650.0,
          649.0,
          650.0,
          651.0,
          649.0,
          649.0,
          650.0,
          649.0,
          648.0,
          650.0,
          648.0,
          648.0,
          648.0,
          649.0,
          647.0,
          650.0,
          652.0,
          648.0,
          648.0,
          648.0,
          649.0,
          650.0,
          649.0,
          647.0,
          647.0,
          648.0,
          649.0,
          648.0,
          648.0,
          648.0,
          649.0,
          649.0,
          650.0,
          649.0,
          648.0,
          650.0,
          649.0,
          651.0,
          649.0,
          649.0,
          650.0,
          650.0,
          649.0,
          648.0,
          648.0,
          647.0,
          649.0,
          650.0,
          647.0,
          647.0,
          650.0,
          649.0,
          647.0,
          648.0,
          648.0,
          648.0,
          649.0,
          647.0,
          650.0,
          649.0,
          647.0,
          647.0,
          650.0,
          650.0,
          647.0,
          647.0,
          649.0,
          648.0,
          650.0,
          649.0,
          649.0,
          650.0,
          649.0,
          647.0,
          648.0,
          648.0,
          650.0,
          649.0,
          649.0,
          648.0,
          648.0,
          649.0,
          649.0,
          648.0,
          649.0,
          649.0,
          647.0,
          647.0,
          649.0,
          649.0,
          647.0,
          649.0,
          648.0,
          650.0,
          648.0,
          647.0,
          650.0,
          648.0,
          649.0,
