{
  "aor": 0.0016015853658536586,
  "aqi": 0.004827973353658537,
  "bids_meta": {
    "AcquisitionMatrixPE": 64,
    "AcquisitionNumber": 1,
    "AcquisitionTime": "16:33:17.597500",
    "BandwidthPerPixelPhaseEncode": 26.483,
    "BaseResolution": 64,
    "BodyPartExamined": "HEAD",
    "CogAtlasID": "TODO",
    "ConversionSoftware": "dcm2niix",
    "ConversionSoftwareVersion": "v1.0.20171017 GCC6.3.0",
    "DerivedVendorReportedEchoSpacing": 0.000590001,
    "DeviceSerialNumber": "35177",
    "DwellTime": 4.1e-06,
    "EchoTime": 0.027,
    "EffectiveEchoSpacing": 0.000590001,
    "FlipAngle": 90,
    "ImageOrientationPatientDICOM": [
      0.996562,
      0.0425437,
      0.071097,
      -0.0506399,
      0.991927,
      0.116258
    ],
    "ImageType": [
      "ORIGINAL",
      "PRIMARY",
      "M",
      "ND",
      "NORM",
      "MOSAIC"
    ],
    "InPlanePhaseEncodingDirectionDICOM": "COL",
    "InstitutionAddress": "Scott_Ave._4525_St._Louis_MO_US_63110",
    "InstitutionName": "Washington_University",
    "InstitutionalDepartmentName": "Department",
    "MRAcquisitionType": "2D",
    "MagneticFieldStrength": 3,
    "Manufacturer": "Siemens",
    "ManufacturersModelName": "TrioTim",
    "Modality": "MR",
    "PartialFourier": 1,
    "PatientPosition": "HFS",
    "PercentPhaseFOV": 100,
    "PhaseEncodingDirection": "j-",
    "PhaseEncodingSteps": 64,
    "PhaseResolution": 1,
    "PixelBandwidth": 1905,
    "ProcedureStepDescription": "head_GREENE",
    "ProtocolName": "ep2d_bold_ad_rest",
    "PulseSequenceDetails": "%SiemensSeq%_ep2d_bold",
    "ReceiveCoilName": "HeadMatrix",
    "ReconMatrixPE": 64,
    "RepetitionTime": 2.5,
    "SAR": 0.121041,
    "ScanOptions": "FS",
    "ScanningSequence": "EP",
    "SequenceName": "_epfid2d1_64",
    "SequenceVariant": "SK",
    "SeriesDescription": "ep2d_bold_ad_rest",
    "SeriesNumber": 9,
    "ShimSetting": [
      -214,
      -19555,
      7923,
      -35,
      -125,
      -869,
      348,
      -104
    ],
    "SliceThickness": 4,
    "SliceTiming": [
      1.255,
      0,
      1.3325,
      0.0775,
      1.4125,
      0.1575,
      1.49,
      0.235,
      1.5675,
      0.3125,
      1.6475,
      0.3925,
      1.725,
      0.47,
      1.8025,
      0.55,
      1.8825,
      0.6275,
      1.96,
      0.705,
      2.04,
      0.785,
      2.1175,
      0.8625,
      2.195,
      0.94,
      2.275,
      1.02,
      2.3525,
      1.0975,
      2.43,
      1.1775
    ],
    "SoftwareVersions": "syngo_MR_B17",
    "SpacingBetweenSlices": 4,
    "StationName": "MRC35177",
    "TaskName": "restfixationadaptive",
    "TotalReadoutTime": 0.0371701,
    "TxRefAmp": 343.087,
    "dataset": "ds000256",
    "dcmmeta_affine": [
      [
        -3.9862468242645264,
        -0.20255963504314423,
        0.2623080611228943,
        142.04489135742188
      ],
      [
        -0.17017464339733124,
        3.9677090644836426,
        0.47783318161964417,
        -114.61013793945312
      ],
      [
        0.2843880355358124,
        -0.46503084897994995,
        3.9626834392547607,
        -35.24382781982422
      ],
      [
        0.0,
        0.0,
        0.0,
        1.0
      ]
    ],
    "dcmmeta_reorient_transform": [
      [
        0.0,
        -1.0,
        0.0,
        63.0
      ],
      [
        1.0,
        0.0,
        0.0,
        0.0
      ],
      [
        0.0,
        0.0,
        1.0,
        0.0
      ],
      [
        0.0,
        0.0,
        0.0,
        1.0
      ]
    ],
    "dcmmeta_shape": [
      64,
      64,
      32,
      164
    ],
    "dcmmeta_slice_dim": 2,
    "dcmmeta_version": 0.6,
    "global": {
      "const": {
        "AccessionNumber": ".",
        "AcquisitionMatrix": [
          64,
          0,
          0,
          64
        ],
        "AngioFlag": "N",
        "BitsAllocated": 16,
        "BitsStored": 12,
        "BodyPartExamined": "HEAD",
        "Columns": 384,
        "DeidentificationMethodCodeSequence": [
          {
            "CodeMeaning": "XNAT Edit Script",
            "CodeValue": "625500",
            "CodingSchemeDesignator": "XNAT",
            "CodingSchemeVersion": "0.1"
          }
        ],
        "EchoNumbers": 1,
        "EchoTime": 27.0,
        "EchoTrainLength": 1,
        "FlipAngle": 90.0,
        "HighBit": 11,
        "ImageOrientationPatient": [
          0.99656171546212,
          0.04254366079217,
          0.07109700557407,
          -0.0506399075147,
          0.99192728801628,
          0.11625770966082
        ],
        "ImagePositionPatient": [
          -734.67359787957,
          -797.4169481625,
          -184.44778943394
        ],
        "ImageType": [
          "ORIGINAL",
          "PRIMARY",
          "M",
          "ND",
          "NORM",
          "MOSAIC"
        ],
        "ImagedNucleus": "1H",
        "ImagingFrequency": 123.255972,
        "InPlanePhaseEncodingDirection": "COL",
        "MRAcquisitionType": "2D",
        "MagneticFieldStrength": 3.0,
        "Manufacturer": "SIEMENS",
        "ManufacturerModelName": "TrioTim",
        "Modality": "MR",
        "NumberOfAverages": 1.0,
        "NumberOfPhaseEncodingSteps": 64,
        "PercentPhaseFieldOfView": 100.0,
        "PercentSampling": 100.0,
        "PerformedProcedureStepStartTime": "155503.937000",
        "PhotometricInterpretation": "MONOCHROME2",
        "PixelBandwidth": 1905.0,
        "PixelRepresentation": 0,
        "PixelSpacing": [
          4.0,
          4.0
        ],
        "PositionReferenceIndicator": "",
        "ProtocolName": "ep2d_bold_ad_rest",
        "RepetitionTime": 2500.0,
        "Rows": 384,
        "SAR": 0.12104146481324,
        "SamplesPerPixel": 1,
        "ScanOptions": "FS",
        "ScanningSequence": "EP",
        "SequenceName": "*epfid2d1_64",
        "SequenceVariant": "SK",
        "SeriesDescription": "ep2d_bold_ad_rest",
        "SeriesNumber": 9,
        "SeriesTime": "163319.171000",
        "SliceLocation": -39.291297570222,
        "SliceThickness": 4.0,
        "SmallestImagePixelValue": 0,
        "SoftwareVersions": "syngo MR B17",
        "SpacingBetweenSlices": 3.9999988457578,
        "SpecificCharacterSet": "ISO_IR 100",
        "StudyID": "1",
        "StudyTime": "155503.890000",
        "TransmitCoilName": "Body",
        "VariableFlipAngleFlag": "N",
        "WindowCenterWidthExplanation": "Algo1",
        "dBdt": 0.0
      },
      "slices": {}
    },
    "modality": "bold",
    "subject_id": "CTS204",
    "task_id": "restfixationadaptive",
    "time": {
      "samples": {
        "AcquisitionNumber": [
          1,
          2,
          3,
          4,
          5,
          6,
          7,
          8,
          9,
          10,
          11,
          12,
          13,
          14,
          15,
          16,
          17,
          18,
          19,
          20,
          21,
          22,
          23,
          24,
          25,
          26,
          27,
          28,
          29,
          30,
          31,
          32,
          33,
          34,
          35,
          36,
          37,
          38,
          39,
          40,
          41,
          42,
          43,
          44,
          45,
          46,
          47,
          48,
          49,
          50,
          51,
          52,
          53,
          54,
          55,
          56,
          57,
          58,
          59,
          60,
          61,
          62,
          63,
          64,
          65,
          66,
          67,
          68,
          69,
          70,
          71,
          72,
          73,
          74,
          75,
          76,
          77,
          78,
          79,
          80,
          81,
          82,
          83,
          84,
          85,
          86,
          87,
          88,
          89,
          90,
          91,
          92,
          93,
          94,
          95,
          96,
          97,
          98,
          99,
          100,
          101,
          102,
          103,
          104,
          105,
          106,
          107,
          108,
          109,
          110,
          111,
          112,
          113,
          114,
          115,
          116,
          117,
          118,
          119,
          120,
          121,
          122,
          123,
          124,
          125,
          126,
          127,
          128,
          129,
          130,
          131,
          132,
          133,
          134,
          135,
          136,
          137,
          138,
          139,
          140,
          141,
          142,
          143,
          144,
          145,
          146,
          147,
          148,
          149,
          150,
          151,
          152,
          153,
          154,
          155,
          156,
          157,
          158,
          159,
          160,
          161,
          162,
          163,
          164
        ],
        "AcquisitionTime": [
          "163317.597500",
          "163320.107500",
          "163322.617500",
          "163325.127500",
          "163327.637500",
          "163330.147500",
          "163332.657500",
          "163335.167500",
          "163337.677500",
          "163340.187500",
          "163342.697500",
          "163345.207500",
          "163347.717500",
          "163350.227500",
          "163352.737500",
          "163355.247500",
          "163357.757500",
          "163400.267500",
          "163402.777500",
          "163405.287500",
          "163407.797500",
          "163410.307500",
          "163412.817500",
          "163415.327500",
          "163417.837500",
          "163420.347500",
          "163422.857500",
          "163425.367500",
          "163427.877500",
          "163430.387500",
          "163432.897500",
          "163435.407500",
          "163437.917500",
          "163440.427500",
          "163442.937500",
          "163445.447500",
          "163447.957500",
          "163450.470000",
          "163452.980000",
          "163455.490000",
          "163458.000000",
          "163500.510000",
          "163503.020000",
          "163505.530000",
          "163508.040000",
          "163510.550000",
          "163513.060000",
          "163515.570000",
          "163518.080000",
          "163520.590000",
          "163523.100000",
          "163525.610000",
          "163528.120000",
          "163530.630000",
          "163533.140000",
          "163535.650000",
          "163538.160000",
          "163540.670000",
          "163543.180000",
          "163545.690000",
          "163548.200000",
          "163550.710000",
          "163553.220000",
          "163555.730000",
          "163558.240000",
          "163600.750000",
          "163603.260000",
          "163605.770000",
          "163608.280000",
          "163610.790000",
          "163613.300000",
          "163615.810000",
          "163618.320000",
          "163620.830000",
          "163623.340000",
          "163625.850000",
          "163628.360000",
          "163630.870000",
          "163633.380000",
          "163635.890000",
          "163638.400000",
          "163640.910000",
          "163643.420000",
          "163645.930000",
          "163648.440000",
          "163650.950000",
          "163653.460000",
          "163655.970000",
          "163658.480000",
          "163700.990000",
          "163703.500000",
          "163706.010000",
          "163708.520000",
          "163711.030000",
          "163713.540000",
          "163716.050000",
          "163718.560000",
          "163721.070000",
          "163723.580000",
          "163726.090000",
          "163728.602500",
          "163731.112500",
          "163733.622500",
          "163736.132500",
          "163738.642500",
          "163741.152500",
          "163743.662500",
          "163746.172500",
          "163748.682500",
          "163751.192500",
          "163753.702500",
          "163756.212500",
          "163758.722500",
          "163801.232500",
          "163803.742500",
          "163806.252500",
          "163808.762500",
          "163811.272500",
          "163813.782500",
          "163816.292500",
          "163818.802500",
          "163821.312500",
          "163823.822500",
          "163826.332500",
          "163828.842500",
          "163831.352500",
          "163833.862500",
          "163836.372500",
          "163838.882500",
          "163841.392500",
          "163843.902500",
          "163846.412500",
          "163848.922500",
          "163851.432500",
          "163853.942500",
          "163856.452500",
          "163858.962500",
          "163901.472500",
          "163903.982500",
          "163906.492500",
          "163909.002500",
          "163911.512500",
          "163914.022500",
          "163916.532500",
          "163919.042500",
          "163921.552500",
          "163924.062500",
          "163926.572500",
          "163929.082500",
          "163931.592500",
          "163934.102500",
          "163936.612500",
          "163939.122500",
          "163941.632500",
          "163944.142500",
          "163946.652500",
          "163949.162500",
          "163951.672500",
          "163954.182500",
          "163956.692500",
          "163959.202500",
          "164001.712500",
          "164004.225000",
          "164006.735000"
        ],
        "ContentTime": [
          "163319.171000",
          "163321.671000",
          "163324.171000",
          "163326.671000",
          "163329.171000",
          "163331.671000",
          "163334.171000",
          "163336.671000",
          "163339.171000",
          "163341.671000",
          "163344.171000",
          "163346.671000",
          "163349.171000",
          "163351.671000",
          "163354.171000",
          "163356.671000",
          "163359.171000",
          "163401.671000",
          "163404.171000",
          "163406.671000",
          "163409.171000",
          "163411.671000",
          "163414.171000",
          "163416.671000",
          "163419.171000",
          "163421.671000",
          "163424.171000",
          "163426.671000",
          "163429.171000",
          "163431.671000",
          "163434.171000",
          "163436.671000",
          "163439.171000",
          "163441.671000",
          "163444.171000",
          "163446.671000",
          "163449.171000",
          "163451.671000",
          "163454.171000",
          "163456.671000",
          "163459.171000",
          "163501.671000",
          "163504.171000",
          "163506.671000",
          "163509.171000",
          "163511.671000",
          "163514.171000",
          "163516.671000",
          "163519.171000",
          "163521.671000",
          "163524.171000",
          "163526.671000",
          "163529.171000",
          "163531.671000",
          "163534.171000",
          "163536.671000",
          "163539.171000",
          "163541.671000",
          "163544.171000",
          "163546.671000",
          "163549.171000",
          "163551.671000",
          "163554.171000",
          "163556.671000",
          "163559.171000",
          "163601.671000",
          "163604.171000",
          "163606.671000",
          "163609.171000",
          "163611.671000",
          "163614.171000",
          "163616.671000",
          "163619.171000",
          "163621.671000",
          "163624.171000",
          "163626.671000",
          "163629.171000",
          "163631.671000",
          "163634.171000",
          "163636.671000",
          "163639.171000",
          "163641.671000",
          "163644.171000",
          "163646.671000",
          "163649.171000",
          "163651.671000",
          "163654.171000",
          "163656.671000",
          "163659.171000",
          "163701.671000",
          "163704.171000",
          "163706.671000",
          "163709.171000",
          "163711.671000",
          "163714.171000",
          "163716.671000",
          "163719.171000",
          "163721.671000",
          "163724.171000",
          "163726.671000",
          "163729.171000",
          "163731.671000",
          "163734.171000",
          "163736.671000",
          "163739.171000",
          "163741.671000",
          "163744.171000",
          "163746.671000",
          "163749.171000",
          "163751.671000",
          "163754.171000",
          "163756.671000",
          "163759.171000",
          "163801.671000",
          "163804.171000",
          "163806.671000",
          "163809.171000",
          "163811.671000",
          "163814.171000",
          "163816.671000",
          "163819.171000",
          "163821.671000",
          "163824.171000",
          "163826.671000",
          "163829.171000",
          "163831.671000",
          "163834.171000",
          "163836.671000",
          "163839.171000",
          "163841.671000",
          "163844.171000",
          "163846.671000",
          "163849.171000",
          "163851.671000",
          "163854.171000",
          "163856.671000",
          "163859.171000",
          "163901.671000",
          "163904.171000",
          "163906.671000",
          "163909.171000",
          "163911.671000",
          "163914.171000",
          "163916.671000",
          "163919.171000",
          "163921.671000",
          "163924.171000",
          "163926.671000",
          "163929.171000",
          "163931.671000",
          "163934.171000",
          "163936.671000",
          "163939.171000",
          "163941.671000",
          "163944.171000",
          "163946.671000",
          "163949.171000",
          "163951.671000",
          "163954.171000",
          "163956.671000",
          "163959.171000",
          "164001.671000",
          "164004.171000",
          "164006.546000"
        ],
        "InstanceCreationTime": [
          "163319.171000",
          "163321.671000",
          "163324.171000",
          "163326.671000",
          "163329.171000",
          "163331.671000",
          "163334.171000",
          "163336.671000",
          "163339.171000",
          "163341.671000",
          "163344.171000",
          "163346.671000",
          "163349.171000",
          "163351.671000",
          "163354.171000",
          "163356.671000",
          "163359.171000",
          "163401.671000",
          "163404.171000",
          "163406.671000",
          "163409.171000",
          "163411.671000",
          "163414.171000",
          "163416.671000",
          "163419.171000",
          "163421.671000",
          "163424.171000",
          "163426.671000",
          "163429.171000",
          "163431.671000",
          "163434.171000",
          "163436.671000",
          "163439.171000",
          "163441.671000",
          "163444.171000",
          "163446.671000",
          "163449.171000",
          "163451.671000",
          "163454.171000",
          "163456.671000",
          "163459.171000",
          "163501.671000",
          "163504.171000",
          "163506.671000",
          "163509.171000",
          "163511.671000",
          "163514.171000",
          "163516.671000",
          "163519.171000",
          "163521.671000",
          "163524.171000",
          "163526.671000",
          "163529.171000",
          "163531.671000",
          "163534.171000",
          "163536.671000",
          "163539.171000",
          "163541.671000",
          "163544.171000",
          "163546.671000",
          "163549.171000",
          "163551.671000",
          "163554.171000",
          "163556.671000",
          "163559.171000",
          "163601.671000",
          "163604.171000",
          "163606.671000",
          "163609.171000",
          "163611.671000",
          "163614.171000",
          "163616.671000",
          "163619.171000",
          "163621.671000",
          "163624.171000",
          "163626.671000",
          "163629.171000",
          "163631.671000",
          "163634.171000",
          "163636.671000",
          "163639.171000",
          "163641.671000",
          "163644.171000",
          "163646.671000",
          "163649.171000",
          "163651.671000",
          "163654.171000",
          "163656.671000",
          "163659.171000",
          "163701.671000",
          "163704.171000",
          "163706.671000",
          "163709.171000",
          "163711.671000",
          "163714.171000",
          "163716.671000",
          "163719.171000",
          "163721.671000",
          "163724.171000",
          "163726.671000",
          "163729.171000",
          "163731.671000",
          "163734.171000",
          "163736.671000",
          "163739.171000",
          "163741.671000",
          "163744.171000",
          "163746.671000",
          "163749.171000",
          "163751.671000",
          "163754.171000",
          "163756.671000",
          "163759.171000",
          "163801.671000",
          "163804.171000",
          "163806.671000",
          "163809.171000",
          "163811.671000",
          "163814.171000",
          "163816.671000",
          "163819.171000",
          "163821.671000",
          "163824.171000",
          "163826.671000",
          "163829.171000",
          "163831.671000",
          "163834.171000",
          "163836.671000",
          "163839.171000",
          "163841.671000",
          "163844.171000",
          "163846.671000",
          "163849.171000",
          "163851.671000",
          "163854.171000",
          "163856.671000",
          "163859.171000",
          "163901.671000",
          "163904.171000",
          "163906.671000",
          "163909.171000",
          "163911.671000",
          "163914.171000",
          "163916.671000",
          "163919.171000",
          "163921.671000",
          "163924.171000",
          "163926.671000",
          "163929.171000",
          "163931.671000",
          "163934.171000",
          "163936.671000",
          "163939.171000",
          "163941.671000",
          "163944.171000",
          "163946.671000",
          "163949.171000",
          "163951.671000",
          "163954.171000",
          "163956.671000",
          "163959.171000",
          "164001.671000",
          "164004.171000",
          "164006.546000"
        ],
        "InstanceNumber": [
          1,
          2,
          3,
          4,
          5,
          6,
          7,
          8,
          9,
          10,
          11,
          12,
          13,
          14,
          15,
          16,
          17,
          18,
          19,
          20,
          21,
          22,
          23,
          24,
          25,
          26,
          27,
          28,
          29,
          30,
          31,
          32,
          33,
          34,
          35,
          36,
          37,
          38,
          39,
          40,
          41,
          42,
          43,
          44,
          45,
          46,
          47,
          48,
          49,
          50,
          51,
          52,
          53,
          54,
          55,
          56,
          57,
          58,
          59,
          60,
          61,
          62,
          63,
          64,
          65,
          66,
          67,
          68,
          69,
          70,
          71,
          72,
          73,
          74,
          75,
          76,
          77,
          78,
          79,
          80,
          81,
          82,
          83,
          84,
          85,
          86,
          87,
          88,
          89,
          90,
          91,
          92,
          93,
          94,
          95,
          96,
          97,
          98,
          99,
          100,
          101,
          102,
          103,
          104,
          105,
          106,
          107,
          108,
          109,
          110,
          111,
          112,
          113,
          114,
          115,
          116,
          117,
          118,
          119,
          120,
          121,
          122,
          123,
          124,
          125,
          126,
          127,
          128,
          129,
          130,
          131,
          132,
          133,
          134,
          135,
          136,
          137,
          138,
          139,
          140,
          141,
          142,
          143,
          144,
          145,
          146,
          147,
          148,
          149,
          150,
          151,
          152,
          153,
          154,
          155,
          156,
          157,
          158,
          159,
          160,
          161,
          162,
          163,
          164
        ],
        "LargestImagePixelValue": [
          1803,
          1851,
          1866,
          1410,
          1597,
          1553,
          1570,
          1441,
          1502,
          1680,
          1703,
          1762,
          1604,
          1402,
          1750,
          1795,
          1824,
          1729,
          1627,
          1691,
          1630,
          1713,
          1766,
          1741,
          1626,
          1637,
          1603,
          1549,
          1704,
          1723,
          1595,
          1702,
          1811,
          1693,
          1765,
          1634,
          1517,
          1500,
          1612,
          1603,
          1642,
          1618,
          1506,
          1588,
          1702,
          1776,
          1782,
          1719,
          1683,
          1648,
          1700,
          1731,
          1424,
          1407,
          1513,
          1555,
          1655,
          1847,
          1577,
          1541,
          1502,
          1443,
          1445,
          1432,
          1487,
          1490,
          1471,
          1636,
          1736,
          1755,
          1583,
          1658,
          1654,
          1660,
          1651,
          1631,
          1650,
          1648,
          1620,
          1676,
          1687,
          1794,
          1622,
          1539,
          1484,
          1397,
          1408,
          1531,
          1411,
          1479,
          1641,
          1579,
          1711,
          1557,
          1681,
          1609,
          1647,
          1696,
          1618,
          1587,
          1742,
          1466,
          1478,
          1496,
          1773,
          1403,
          1465,
          1473,
          1661,
          1797,
          1414,
          1571,
          1616,
          1759,
          1647,
          1638,
          1502,
          1635,
          1826,
          1440,
          1406,
          1421,
          1624,
          1445,
          1764,
          1554,
          1607,
          1631,
          1560,
          1643,
          1641,
          1570,
          1607,
          1418,
          1431,
          1413,
          1448,
          1543,
          1456,
          1768,
          1531,
          1494,
          1410,
          1588,
          1751,
          1540,
          1403,
          1468,
          1560,
          1683,
          1676,
          1536,
          1560,
          1646,
          1575,
          1483,
          1578,
          1415,
          1431,
          1476,
          1589,
          1697,
          1554,
          1424
        ],
        "WindowCenter": [
          628.0,
          626.0,
          628.0,
          626.0,
          626.0,
          625.0,
          625.0,
          625.0,
          626.0,
          627.0,
          626.0,
          626.0,
          625.0,
          624.0,
          628.0,
          627.0,
          627.0,
          626.0,
          626.0,
          626.0,
          625.0,
          626.0,
          627.0,
          627.0,
          625.0,
          626.0,
          625.0,
          625.0,
          626.0,
          626.0,
          625.0,
          626.0,
          626.0,
          626.0,
          626.0,
          625.0,
          625.0,
          627.0,
          626.0,
          625.0,
          626.0,
          626.0,
          625.0,
          625.0,
          626.0,
          626.0,
          626.0,
          627.0,
          627.0,
          626.0,
          625.0,
          626.0,
          625.0,
          626.0,
          626.0,
          627.0,
          626.0,
          627.0,
          625.0,
          625.0,
          626.0,
          624.0,
          625.0,
          625.0,
          624.0,
          625.0,
          626.0,
          626.0,
          626.0,
          626.0,
          625.0,
          625.0,
          625.0,
          626.0,
          626.0,
          625.0,
          625.0,
          626.0,
          625.0,
          625.0,
          627.0,
          626.0,
          625.0,
          623.0,
          624.0,
          625.0,
          623.0,
          624.0,
          625.0,
          625.0,
          625.0,
          625.0,
          625.0,
          625.0,
          625.0,
          625.0,
          626.0,
          627.0,
          627.0,
          626.0,
          626.0,
          626.0,
          626.0,
          627.0,
          628.0,
          628.0,
          627.0,
          626.0,
          626.0,
          626.0,
          627.0,
          626.0,
          625.0,
          625.0,
          626.0,
          626.0,
          625.0,
          627.0,
          627.0,
          624.0,
          625.0,
          624.0,
          625.0,
          624.0,
          626.0,
          625.0,
          624.0,
          624.0,
          624.0,
          624.0,
          625.0,
          626.0,
          625.0,
          624.0,
          625.0,
          625.0,
          624.0,
          626.0,
          625.0,
          625.0,
          625.0,
          625.0,
          625.0,
          625.0,
          625.0,
          624.0,
          623.0,
          626.0,
          626.0,
