{
  "aor": 0.0011534756097560976,
  "aqi": 0.005114192317073171,
  "bids_meta": {
    "AcquisitionMatrixPE": 64,
    "AcquisitionNumber": 1,
    "AcquisitionTime": "16:49:20.840000",
    "BandwidthPerPixelPhaseEncode": 26.483,
    "BaseResolution": 64,
    "BodyPartExamined": "HEAD",
    "CogAtlasID": "TODO",
    "ConversionSoftware": "dcm2niix",
    "ConversionSoftwareVersion": "v1.0.20171017 GCC6.3.0",
    "DerivedVendorReportedEchoSpacing": 0.000590001,
    "DeviceSerialNumber": "35177",
    "DwellTime": 4.1e-06,
    "EchoTime": 0.027,
    "EffectiveEchoSpacing": 0.000590001,
    "FlipAngle": 90,
    "ImageOrientationPatientDICOM": [
      0.996562,
      0.0425437,
      0.071097,
      -0.0506399,
      0.991927,
      0.116258
    ],
    "ImageType": [
      "ORIGINAL",
      "PRIMARY",
      "M",
      "ND",
      "NORM",
      "MOSAIC"
    ],
    "InPlanePhaseEncodingDirectionDICOM": "COL",
    "InstitutionAddress": "Scott_Ave._4525_St._Louis_MO_US_63110",
    "InstitutionName": "Washington_University",
    "InstitutionalDepartmentName": "Department",
    "MRAcquisitionType": "2D",
    "MagneticFieldStrength": 3,
    "Manufacturer": "Siemens",
    "ManufacturersModelName": "TrioTim",
    "Modality": "MR",
    "PartialFourier": 1,
    "PatientPosition": "HFS",
    "PercentPhaseFOV": 100,
    "PhaseEncodingDirection": "j-",
    "PhaseEncodingSteps": 64,
    "PhaseResolution": 1,
    "PixelBandwidth": 1905,
    "ProcedureStepDescription": "head_GREENE",
    "ProtocolName": "ep2d_bold_rest2",
    "PulseSequenceDetails": "%SiemensSeq%_ep2d_bold",
    "ReceiveCoilName": "HeadMatrix",
    "ReconMatrixPE": 64,
    "RepetitionTime": 2.5,
    "SAR": 0.121041,
    "ScanOptions": "FS",
    "ScanningSequence": "EP",
    "SequenceName": "_epfid2d1_64",
    "SequenceVariant": "SK",
    "SeriesDescription": "ep2d_bold_rest2",
    "SeriesNumber": 11,
    "ShimSetting": [
      -214,
      -19555,
      7923,
      -35,
      -125,
      -869,
      348,
      -104
    ],
    "SliceThickness": 4,
    "SliceTiming": [
      1.255,
      0,
      1.3325,
      0.0775,
      1.4125,
      0.1575,
      1.49,
      0.235,
      1.57,
      0.315,
      1.6475,
      0.3925,
      1.725,
      0.47,
      1.805,
      0.55,
      1.8825,
      0.6275,
      1.96,
      0.705,
      2.04,
      0.785,
      2.1175,
      0.8625,
      2.195,
      0.9425,
      2.275,
      1.02,
      2.3525,
      1.0975,
      2.4325,
      1.1775
    ],
    "SoftwareVersions": "syngo_MR_B17",
    "SpacingBetweenSlices": 4,
    "StationName": "MRC35177",
    "TaskName": "restfixationnofeedback",
    "TotalReadoutTime": 0.0371701,
    "TxRefAmp": 343.087,
    "dataset": "ds000256",
    "dcmmeta_affine": [
      [
        -3.9862468242645264,
        -0.20255963504314423,
        0.2623080313205719,
        142.04489135742188
      ],
      [
        -0.17017464339733124,
        3.9677090644836426,
        0.4778331518173218,
        -114.61013793945312
      ],
      [
        0.2843880355358124,
        -0.46503084897994995,
        3.9626834392547607,
        -34.47274398803711
      ],
      [
        0.0,
        0.0,
        0.0,
        1.0
      ]
    ],
    "dcmmeta_reorient_transform": [
      [
        0.0,
        -1.0,
        0.0,
        63.0
      ],
      [
        1.0,
        0.0,
        0.0,
        0.0
      ],
      [
        0.0,
        0.0,
        1.0,
        0.0
      ],
      [
        0.0,
        0.0,
        0.0,
        1.0
      ]
    ],
    "dcmmeta_shape": [
      64,
      64,
      32,
      164
    ],
    "dcmmeta_slice_dim": 2,
    "dcmmeta_version": 0.6,
    "global": {
      "const": {
        "AccessionNumber": ".",
        "AcquisitionMatrix": [
          64,
          0,
          0,
          64
        ],
        "AngioFlag": "N",
        "BitsAllocated": 16,
        "BitsStored": 12,
        "BodyPartExamined": "HEAD",
        "Columns": 384,
        "DeidentificationMethodCodeSequence": [
          {
            "CodeMeaning": "XNAT Edit Script",
            "CodeValue": "625500",
            "CodingSchemeDesignator": "XNAT",
            "CodingSchemeVersion": "0.1"
          }
        ],
        "EchoNumbers": 1,
        "EchoTime": 27.0,
        "EchoTrainLength": 1,
        "FlipAngle": 90.0,
        "HighBit": 11,
        "ImageOrientationPatient": [
          0.99656171546212,
          0.04254366079217,
          0.07109700557407,
          -0.0506399075147,
          0.99192728801628,
          0.11625770966082
        ],
        "ImagePositionPatient": [
          -734.67359787957,
          -797.4169481625,
          -183.67670560215
        ],
        "ImageType": [
          "ORIGINAL",
          "PRIMARY",
          "M",
          "ND",
          "NORM",
          "MOSAIC"
        ],
        "ImagedNucleus": "1H",
        "ImagingFrequency": 123.255974,
        "InPlanePhaseEncodingDirection": "COL",
        "MRAcquisitionType": "2D",
        "MagneticFieldStrength": 3.0,
        "Manufacturer": "SIEMENS",
        "ManufacturerModelName": "TrioTim",
        "Modality": "MR",
        "NumberOfAverages": 1.0,
        "NumberOfPhaseEncodingSteps": 64,
        "PercentPhaseFieldOfView": 100.0,
        "PercentSampling": 100.0,
        "PerformedProcedureStepStartTime": "155503.937000",
        "PhotometricInterpretation": "MONOCHROME2",
        "PixelBandwidth": 1905.0,
        "PixelRepresentation": 0,
        "PixelSpacing": [
          4.0,
          4.0
        ],
        "PositionReferenceIndicator": "",
        "ProtocolName": "ep2d_bold_rest2",
        "RepetitionTime": 2500.0,
        "Rows": 384,
        "SAR": 0.12104146481324,
        "SamplesPerPixel": 1,
        "ScanOptions": "FS",
        "ScanningSequence": "EP",
        "SequenceName": "*epfid2d1_64",
        "SequenceVariant": "SK",
        "SeriesDescription": "ep2d_bold_rest2",
        "SeriesNumber": 11,
        "SeriesTime": "164922.671000",
        "SliceLocation": -38.52740705088,
        "SliceThickness": 4.0,
        "SmallestImagePixelValue": 0,
        "SoftwareVersions": "syngo MR B17",
        "SpacingBetweenSlices": 3.999998723851,
        "SpecificCharacterSet": "ISO_IR 100",
        "StudyID": "1",
        "StudyTime": "155503.890000",
        "TransmitCoilName": "Body",
        "VariableFlipAngleFlag": "N",
        "WindowCenterWidthExplanation": "Algo1",
        "dBdt": 0.0
      },
      "slices": {}
    },
    "modality": "bold",
    "subject_id": "CTS204",
    "task_id": "restfixationnofeedback",
    "time": {
      "samples": {
        "AcquisitionNumber": [
          1,
          2,
          3,
          4,
          5,
          6,
          7,
          8,
          9,
          10,
          11,
          12,
          13,
          14,
          15,
          16,
          17,
          18,
          19,
          20,
          21,
          22,
          23,
          24,
          25,
          26,
          27,
          28,
          29,
          30,
          31,
          32,
          33,
          34,
          35,
          36,
          37,
          38,
          39,
          40,
          41,
          42,
          43,
          44,
          45,
          46,
          47,
          48,
          49,
          50,
          51,
          52,
          53,
          54,
          55,
          56,
          57,
          58,
          59,
          60,
          61,
          62,
          63,
          64,
          65,
          66,
          67,
          68,
          69,
          70,
          71,
          72,
          73,
          74,
          75,
          76,
          77,
          78,
          79,
          80,
          81,
          82,
          83,
          84,
          85,
          86,
          87,
          88,
          89,
          90,
          91,
          92,
          93,
          94,
          95,
          96,
          97,
          98,
          99,
          100,
          101,
          102,
          103,
          104,
          105,
          106,
          107,
          108,
          109,
          110,
          111,
          112,
          113,
          114,
          115,
          116,
          117,
          118,
          119,
          120,
          121,
          122,
          123,
          124,
          125,
          126,
          127,
          128,
          129,
          130,
          131,
          132,
          133,
          134,
          135,
          136,
          137,
          138,
          139,
          140,
          141,
          142,
          143,
          144,
          145,
          146,
          147,
          148,
          149,
          150,
          151,
          152,
          153,
          154,
          155,
          156,
          157,
          158,
          159,
          160,
          161,
          162,
          163,
          164
        ],
        "AcquisitionTime": [
          "164920.840000",
          "164923.350000",
          "164925.860000",
          "164928.370000",
          "164930.880000",
          "164933.390000",
          "164935.900000",
          "164938.410000",
          "164940.920000",
          "164943.430000",
          "164945.940000",
          "164948.450000",
          "164950.960000",
          "164953.470000",
          "164955.980000",
          "164958.490000",
          "165001.000000",
          "165003.510000",
          "165006.020000",
          "165008.530000",
          "165011.040000",
          "165013.550000",
          "165016.060000",
          "165018.570000",
          "165021.080000",
          "165023.590000",
          "165026.100000",
          "165028.610000",
          "165031.120000",
          "165033.630000",
          "165036.142500",
          "165038.652500",
          "165041.162500",
          "165043.672500",
          "165046.182500",
          "165048.692500",
          "165051.202500",
          "165053.712500",
          "165056.222500",
          "165058.732500",
          "165101.242500",
          "165103.752500",
          "165106.262500",
          "165108.772500",
          "165111.282500",
          "165113.792500",
          "165116.302500",
          "165118.812500",
          "165121.322500",
          "165123.832500",
          "165126.342500",
          "165128.852500",
          "165131.362500",
          "165133.872500",
          "165136.382500",
          "165138.892500",
          "165141.402500",
          "165143.912500",
          "165146.422500",
          "165148.932500",
          "165151.442500",
          "165153.952500",
          "165156.462500",
          "165158.972500",
          "165201.482500",
          "165203.992500",
          "165206.502500",
          "165209.012500",
          "165211.522500",
          "165214.032500",
          "165216.542500",
          "165219.052500",
          "165221.562500",
          "165224.072500",
          "165226.582500",
          "165229.092500",
          "165231.602500",
          "165234.112500",
          "165236.622500",
          "165239.132500",
          "165241.642500",
          "165244.152500",
          "165246.662500",
          "165249.172500",
          "165251.682500",
          "165254.192500",
          "165256.702500",
          "165259.212500",
          "165301.722500",
          "165304.232500",
          "165306.742500",
          "165309.252500",
          "165311.765000",
          "165314.275000",
          "165316.785000",
          "165319.295000",
          "165321.805000",
          "165324.315000",
          "165326.825000",
          "165329.335000",
          "165331.845000",
          "165334.355000",
          "165336.865000",
          "165339.375000",
          "165341.885000",
          "165344.395000",
          "165346.905000",
          "165349.415000",
          "165351.925000",
          "165354.435000",
          "165356.945000",
          "165359.455000",
          "165401.965000",
          "165404.475000",
          "165406.985000",
          "165409.495000",
          "165412.005000",
          "165414.515000",
          "165417.025000",
          "165419.535000",
          "165422.045000",
          "165424.555000",
          "165427.065000",
          "165429.575000",
          "165432.085000",
          "165434.595000",
          "165437.105000",
          "165439.615000",
          "165442.125000",
          "165444.635000",
          "165447.145000",
          "165449.655000",
          "165452.165000",
          "165454.675000",
          "165457.185000",
          "165459.695000",
          "165502.205000",
          "165504.715000",
          "165507.225000",
          "165509.735000",
          "165512.245000",
          "165514.755000",
          "165517.265000",
          "165519.775000",
          "165522.285000",
          "165524.795000",
          "165527.305000",
          "165529.815000",
          "165532.325000",
          "165534.835000",
          "165537.345000",
          "165539.855000",
          "165542.365000",
          "165544.875000",
          "165547.385000",
          "165549.897500",
          "165552.407500",
          "165554.917500",
          "165557.427500",
          "165559.937500",
          "165602.447500",
          "165604.957500",
          "165607.467500",
          "165609.977500"
        ],
        "ContentTime": [
          "164922.687000",
          "164925.171000",
          "164927.671000",
          "164930.171000",
          "164932.671000",
          "164935.171000",
          "164937.671000",
          "164940.171000",
          "164942.671000",
          "164945.171000",
          "164947.671000",
          "164950.171000",
          "164952.671000",
          "164955.171000",
          "164957.671000",
          "165000.171000",
          "165002.671000",
          "165005.171000",
          "165007.671000",
          "165010.171000",
          "165012.671000",
          "165015.171000",
          "165017.671000",
          "165020.171000",
          "165022.671000",
          "165025.171000",
          "165027.671000",
          "165030.171000",
          "165032.671000",
          "165035.171000",
          "165037.671000",
          "165040.171000",
          "165042.671000",
          "165045.171000",
          "165047.671000",
          "165050.171000",
          "165052.671000",
          "165055.171000",
          "165057.671000",
          "165100.171000",
          "165102.671000",
          "165105.171000",
          "165107.671000",
          "165110.171000",
          "165112.671000",
          "165115.171000",
          "165117.671000",
          "165120.171000",
          "165122.671000",
          "165125.171000",
          "165127.671000",
          "165130.171000",
          "165132.671000",
          "165135.171000",
          "165137.671000",
          "165140.171000",
          "165142.671000",
          "165145.171000",
          "165147.671000",
          "165150.171000",
          "165152.671000",
          "165155.171000",
          "165157.671000",
          "165200.171000",
          "165202.671000",
          "165205.171000",
          "165207.671000",
          "165210.171000",
          "165212.671000",
          "165215.171000",
          "165217.671000",
          "165220.171000",
          "165222.671000",
          "165225.171000",
          "165227.671000",
          "165230.171000",
          "165232.671000",
          "165235.171000",
          "165237.671000",
          "165240.171000",
          "165242.671000",
          "165245.171000",
          "165247.671000",
          "165250.171000",
          "165252.671000",
          "165255.171000",
          "165257.671000",
          "165300.171000",
          "165302.671000",
          "165305.171000",
          "165307.671000",
          "165310.171000",
          "165312.671000",
          "165315.171000",
          "165317.671000",
          "165320.171000",
          "165322.671000",
          "165325.171000",
          "165327.671000",
          "165330.171000",
          "165332.671000",
          "165335.171000",
          "165337.671000",
          "165340.171000",
          "165342.671000",
          "165345.171000",
          "165347.671000",
          "165350.171000",
          "165352.671000",
          "165355.171000",
          "165357.671000",
          "165400.171000",
          "165402.671000",
          "165405.171000",
          "165407.671000",
          "165410.171000",
          "165412.671000",
          "165415.171000",
          "165417.671000",
          "165420.171000",
          "165422.671000",
          "165425.171000",
          "165427.671000",
          "165430.171000",
          "165432.671000",
          "165435.171000",
          "165437.671000",
          "165440.171000",
          "165442.671000",
          "165445.171000",
          "165447.671000",
          "165450.171000",
          "165452.671000",
          "165455.171000",
          "165457.671000",
          "165500.171000",
          "165502.671000",
          "165505.171000",
          "165507.671000",
          "165510.171000",
          "165512.671000",
          "165515.171000",
          "165517.671000",
          "165520.171000",
          "165522.671000",
          "165525.171000",
          "165527.687000",
          "165530.171000",
          "165532.671000",
          "165535.171000",
          "165537.671000",
          "165540.171000",
          "165542.671000",
          "165545.171000",
          "165547.671000",
          "165550.171000",
          "165552.671000",
          "165555.171000",
          "165557.671000",
          "165600.171000",
          "165602.671000",
          "165605.171000",
          "165607.671000",
          "165609.921000"
        ],
        "InstanceCreationTime": [
          "164922.687000",
          "164925.171000",
          "164927.671000",
          "164930.171000",
          "164932.671000",
          "164935.171000",
          "164937.671000",
          "164940.171000",
          "164942.671000",
          "164945.171000",
          "164947.671000",
          "164950.171000",
          "164952.671000",
          "164955.171000",
          "164957.671000",
          "165000.171000",
          "165002.671000",
          "165005.171000",
          "165007.671000",
          "165010.171000",
          "165012.671000",
          "165015.171000",
          "165017.671000",
          "165020.171000",
          "165022.671000",
          "165025.171000",
          "165027.671000",
          "165030.171000",
          "165032.671000",
          "165035.171000",
          "165037.671000",
          "165040.171000",
          "165042.671000",
          "165045.171000",
          "165047.671000",
          "165050.171000",
          "165052.671000",
          "165055.171000",
          "165057.671000",
          "165100.171000",
          "165102.671000",
          "165105.171000",
          "165107.671000",
          "165110.171000",
          "165112.671000",
          "165115.171000",
          "165117.671000",
          "165120.171000",
          "165122.671000",
          "165125.171000",
          "165127.671000",
          "165130.171000",
          "165132.671000",
          "165135.171000",
          "165137.671000",
          "165140.171000",
          "165142.671000",
          "165145.171000",
          "165147.671000",
          "165150.171000",
          "165152.671000",
          "165155.171000",
          "165157.671000",
          "165200.171000",
          "165202.671000",
          "165205.171000",
          "165207.671000",
          "165210.171000",
          "165212.671000",
          "165215.171000",
          "165217.671000",
          "165220.171000",
          "165222.671000",
          "165225.171000",
          "165227.671000",
          "165230.171000",
          "165232.671000",
          "165235.171000",
          "165237.671000",
          "165240.171000",
          "165242.671000",
          "165245.171000",
          "165247.671000",
          "165250.171000",
          "165252.671000",
          "165255.171000",
          "165257.671000",
          "165300.171000",
          "165302.671000",
          "165305.171000",
          "165307.671000",
          "165310.171000",
          "165312.671000",
          "165315.171000",
          "165317.671000",
          "165320.171000",
          "165322.671000",
          "165325.171000",
          "165327.671000",
          "165330.171000",
          "165332.671000",
          "165335.171000",
          "165337.671000",
          "165340.171000",
          "165342.671000",
          "165345.171000",
          "165347.671000",
          "165350.171000",
          "165352.671000",
          "165355.171000",
          "165357.671000",
          "165400.171000",
          "165402.671000",
          "165405.171000",
          "165407.671000",
          "165410.171000",
          "165412.671000",
          "165415.171000",
          "165417.671000",
          "165420.171000",
          "165422.671000",
          "165425.171000",
          "165427.671000",
          "165430.171000",
          "165432.671000",
          "165435.171000",
          "165437.671000",
          "165440.171000",
          "165442.671000",
          "165445.171000",
          "165447.671000",
          "165450.171000",
          "165452.671000",
          "165455.171000",
          "165457.671000",
          "165500.171000",
          "165502.671000",
          "165505.171000",
          "165507.671000",
          "165510.171000",
          "165512.671000",
          "165515.171000",
          "165517.671000",
          "165520.171000",
          "165522.671000",
          "165525.171000",
          "165527.687000",
          "165530.171000",
          "165532.671000",
          "165535.171000",
          "165537.671000",
          "165540.171000",
          "165542.671000",
          "165545.171000",
          "165547.671000",
          "165550.171000",
          "165552.671000",
          "165555.171000",
          "165557.671000",
          "165600.171000",
          "165602.671000",
          "165605.171000",
          "165607.671000",
          "165609.921000"
        ],
        "InstanceNumber": [
          1,
          2,
          3,
          4,
          5,
          6,
          7,
          8,
          9,
          10,
          11,
          12,
          13,
          14,
          15,
          16,
          17,
          18,
          19,
          20,
          21,
          22,
          23,
          24,
          25,
          26,
          27,
          28,
          29,
          30,
          31,
          32,
          33,
          34,
          35,
          36,
          37,
          38,
          39,
          40,
          41,
          42,
          43,
          44,
          45,
          46,
          47,
          48,
          49,
          50,
          51,
          52,
          53,
          54,
          55,
          56,
          57,
          58,
          59,
          60,
          61,
          62,
          63,
          64,
          65,
          66,
          67,
          68,
          69,
          70,
          71,
          72,
          73,
          74,
          75,
          76,
          77,
          78,
          79,
          80,
          81,
          82,
          83,
          84,
          85,
          86,
          87,
          88,
          89,
          90,
          91,
          92,
          93,
          94,
          95,
          96,
          97,
          98,
          99,
          100,
          101,
          102,
          103,
          104,
          105,
          106,
          107,
          108,
          109,
          110,
          111,
          112,
          113,
          114,
          115,
          116,
          117,
          118,
          119,
          120,
          121,
          122,
          123,
          124,
          125,
          126,
          127,
          128,
          129,
          130,
          131,
          132,
          133,
          134,
          135,
          136,
          137,
          138,
          139,
          140,
          141,
          142,
          143,
          144,
          145,
          146,
          147,
          148,
          149,
          150,
          151,
          152,
          153,
          154,
          155,
          156,
          157,
          158,
          159,
          160,
          161,
          162,
          163,
          164
        ],
        "LargestImagePixelValue": [
          1660,
          1588,
          1499,
          1496,
          1556,
          1666,
          1638,
          1587,
          1757,
          1403,
          1750,
          1615,
          1418,
          1411,
          1365,
          1480,
          1729,
          1795,
          1659,
          1715,
          1428,
          1776,
          1376,
          1405,
          1456,
          1526,
          1608,
          1652,
          1660,
          1391,
          1383,
          1472,
          1454,
          1489,
          1567,
          1465,
          1606,
          1722,
          1705,
          1638,
          1399,
          1395,
          1475,
          1422,
          1473,
          1445,
          1418,
          1418,
          1487,
          1415,
          1452,
          1551,
          1460,
          1501,
          1583,
          1678,
          1369,
          1482,
          1462,
          1623,
          1392,
          1437,
          1519,
          1549,
          1625,
          1682,
          1381,
          1424,
          1370,
          1442,
          1512,
          1438,
          1434,
          1506,
          1634,
          1390,
          1390,
          1398,
          1404,
          1588,
          1604,
          1553,
          1511,
          1631,
          1684,
          1656,
          1385,
          1385,
          1449,
          1472,
          1588,
          1403,
          1444,
          1532,
          1650,
          1476,
          1755,
          1591,
          1395,
          1403,
          1399,
          1464,
          1432,
          1435,
          1450,
          1419,
          1388,
          1516,
          1469,
          1507,
          1405,
          1441,
          1485,
          1531,
          1414,
          1413,
          1403,
          1494,
          1648,
          1406,
          1542,
          1507,
          1454,
          1408,
          1454,
          1420,
          1563,
          1509,
          1606,
          1777,
          1475,
          1519,
          1460,
          1437,
          1542,
          1630,
          1652,
          1562,
          1423,
          1449,
          1813,
          1635,
          1632,
          1690,
          1422,
          1426,
          1413,
          1416,
          1454,
          1512,
          1619,
          1591,
          1415,
          1430,
          1489,
          1566,
          1564,
          1423,
          1524,
          1919,
          1609,
          1578,
          1623,
          1419
        ],
        "WindowCenter": [
          628.0,
          626.0,
          625.0,
          625.0,
          626.0,
          625.0,
          625.0,
          626.0,
          625.0,
          626.0,
          627.0,
          626.0,
          626.0,
          626.0,
          627.0,
          626.0,
          626.0,
          626.0,
          625.0,
          626.0,
          624.0,
          625.0,
          624.0,
          624.0,
          624.0,
          625.0,
          625.0,
          627.0,
          625.0,
          626.0,
          626.0,
          625.0,
          626.0,
          625.0,
          625.0,
          627.0,
          625.0,
          625.0,
          626.0,
          626.0,
          624.0,
          626.0,
          625.0,
          626.0,
          626.0,
          625.0,
          625.0,
          625.0,
          623.0,
          626.0,
          624.0,
          626.0,
          625.0,
          624.0,
          625.0,
          624.0,
          626.0,
          625.0,
          625.0,
          625.0,
          626.0,
          626.0,
          625.0,
          625.0,
          626.0,
          626.0,
          624.0,
          624.0,
          625.0,
          625.0,
          625.0,
          624.0,
          623.0,
          626.0,
          626.0,
          625.0,
          625.0,
          625.0,
          625.0,
          627.0,
          625.0,
          625.0,
          625.0,
          625.0,
          626.0,
          628.0,
          625.0,
          625.0,
          625.0,
          626.0,
          625.0,
          626.0,
          625.0,
          626.0,
          625.0,
          625.0,
          626.0,
          625.0,
          625.0,
          626.0,
          626.0,
          623.0,
          625.0,
          625.0,
          627.0,
          627.0,
          625.0,
          627.0,
          624.0,
          626.0,
          625.0,
          624.0,
          624.0,
          624.0,
          624.0,
          624.0,
          625.0,
          626.0,
          624.0,
          624.0,
          626.0,
          626.0,
          625.0,
          623.0,
          624.0,
          625.0,
          625.0,
          624.0,
          624.0,
          625.0,
          626.0,
          626.0,
          624.0,
          625.0,
          626.0,
          627.0,
          628.0,
          627.0,
          626.0,
          625.0,
          627.0,
          624.0,
          626.0,
          628.0,
          625.0,
          625.0,
          626.0,
          625.0,
          625.0,
          627.0,
