{
  "aor": 0.0010707975460122702,
  "aqi": 0.005620498834355828,
  "bids_meta": {
    "AcquisitionMatrixPE": 64,
    "AcquisitionNumber": 1,
    "AcquisitionTime": "16:17:17.142500",
    "BandwidthPerPixelPhaseEncode": 26.483,
    "BaseResolution": 64,
    "BodyPartExamined": "HEAD",
    "CogAtlasID": "TODO",
    "ConversionSoftware": "dcm2niix",
    "ConversionSoftwareVersion": "v1.0.20171017 GCC6.3.0",
    "DerivedVendorReportedEchoSpacing": 0.000590001,
    "DeviceSerialNumber": "35177",
    "DwellTime": 4.1e-06,
    "EchoTime": 0.027,
    "EffectiveEchoSpacing": 0.000590001,
    "FlipAngle": 90,
    "ImageOrientationPatientDICOM": [
      0.996562,
      0.0425437,
      0.071097,
      -0.0506399,
      0.991927,
      0.116258
    ],
    "ImageType": [
      "ORIGINAL",
      "PRIMARY",
      "M",
      "ND",
      "NORM",
      "MOSAIC"
    ],
    "InPlanePhaseEncodingDirectionDICOM": "COL",
    "InstitutionAddress": "Scott_Ave._4525_St._Louis_MO_US_63110",
    "InstitutionName": "Washington_University",
    "InstitutionalDepartmentName": "Department",
    "MRAcquisitionType": "2D",
    "MagneticFieldStrength": 3,
    "Manufacturer": "Siemens",
    "ManufacturersModelName": "TrioTim",
    "Modality": "MR",
    "PartialFourier": 1,
    "PatientPosition": "HFS",
    "PercentPhaseFOV": 100,
    "PhaseEncodingDirection": "j-",
    "PhaseEncodingSteps": 64,
    "PhaseResolution": 1,
    "PixelBandwidth": 1905,
    "ProcedureStepDescription": "head_GREENE",
    "ProtocolName": "ep2d_bold_ad_movie_2A",
    "PulseSequenceDetails": "%SiemensSeq%_ep2d_bold",
    "ReceiveCoilName": "HeadMatrix",
    "ReconMatrixPE": 64,
    "RepetitionTime": 2.5,
    "SAR": 0.121041,
    "ScanOptions": "FS",
    "ScanningSequence": "EP",
    "SequenceName": "_epfid2d1_64",
    "SequenceVariant": "SK",
    "SeriesDescription": "ep2d_bold_ad_movie_2A",
    "SeriesNumber": 7,
    "ShimSetting": [
      -214,
      -19555,
      7923,
      -35,
      -125,
      -869,
      348,
      -104
    ],
    "SliceThickness": 4,
    "SliceTiming": [
      1.255,
      0,
      1.3325,
      0.0775,
      1.4125,
      0.1575,
      1.49,
      0.235,
      1.5675,
      0.3125,
      1.6475,
      0.3925,
      1.725,
      0.47,
      1.8025,
      0.5475,
      1.8825,
      0.6275,
      1.96,
      0.705,
      2.04,
      0.785,
      2.1175,
      0.8625,
      2.195,
      0.94,
      2.275,
      1.02,
      2.3525,
      1.0975,
      2.43,
      1.175
    ],
    "SoftwareVersions": "syngo_MR_B17",
    "SpacingBetweenSlices": 4,
    "StationName": "MRC35177",
    "TaskName": "restmovieadaptive",
    "TotalReadoutTime": 0.0371701,
    "TxRefAmp": 343.087,
    "dataset": "ds000256",
    "dcmmeta_affine": [
      [
        -3.9862468242645264,
        -0.20255963504314423,
        0.2623080611228943,
        142.04489135742188
      ],
      [
        -0.17017464339733124,
        3.9677090644836426,
        0.47783318161964417,
        -114.61013793945312
      ],
      [
        0.2843880355358124,
        -0.46503084897994995,
        3.9626834392547607,
        -35.24382781982422
      ],
      [
        0.0,
        0.0,
        0.0,
        1.0
      ]
    ],
    "dcmmeta_reorient_transform": [
      [
        0.0,
        -1.0,
        0.0,
        63.0
      ],
      [
        1.0,
        0.0,
        0.0,
        0.0
      ],
      [
        0.0,
        0.0,
        1.0,
        0.0
      ],
      [
        0.0,
        0.0,
        0.0,
        1.0
      ]
    ],
    "dcmmeta_shape": [
      64,
      64,
      32,
      164
    ],
    "dcmmeta_slice_dim": 2,
    "dcmmeta_version": 0.6,
    "global": {
      "const": {
        "AccessionNumber": ".",
        "AcquisitionMatrix": [
          64,
          0,
          0,
          64
        ],
        "AngioFlag": "N",
        "BitsAllocated": 16,
        "BitsStored": 12,
        "BodyPartExamined": "HEAD",
        "Columns": 384,
        "DeidentificationMethodCodeSequence": [
          {
            "CodeMeaning": "XNAT Edit Script",
            "CodeValue": "625500",
            "CodingSchemeDesignator": "XNAT",
            "CodingSchemeVersion": "0.1"
          }
        ],
        "EchoNumbers": 1,
        "EchoTime": 27.0,
        "EchoTrainLength": 1,
        "FlipAngle": 90.0,
        "HighBit": 11,
        "ImageOrientationPatient": [
          0.99656171546212,
          0.04254366079217,
          0.07109700557407,
          -0.0506399075147,
          0.99192728801628,
          0.11625770966082
        ],
        "ImagePositionPatient": [
          -734.67359787957,
          -797.4169481625,
          -184.44778943394
        ],
        "ImageType": [
          "ORIGINAL",
          "PRIMARY",
          "M",
          "ND",
          "NORM",
          "MOSAIC"
        ],
        "ImagedNucleus": "1H",
        "ImagingFrequency": 123.255973,
        "InPlanePhaseEncodingDirection": "COL",
        "MRAcquisitionType": "2D",
        "MagneticFieldStrength": 3.0,
        "Manufacturer": "SIEMENS",
        "ManufacturerModelName": "TrioTim",
        "Modality": "MR",
        "NumberOfAverages": 1.0,
        "NumberOfPhaseEncodingSteps": 64,
        "PercentPhaseFieldOfView": 100.0,
        "PercentSampling": 100.0,
        "PerformedProcedureStepStartTime": "155503.937000",
        "PhotometricInterpretation": "MONOCHROME2",
        "PixelBandwidth": 1905.0,
        "PixelRepresentation": 0,
        "PixelSpacing": [
          4.0,
          4.0
        ],
        "PositionReferenceIndicator": "",
        "ProtocolName": "ep2d_bold_ad_movie_2A",
        "RepetitionTime": 2500.0,
        "Rows": 384,
        "SAR": 0.12104146481324,
        "SamplesPerPixel": 1,
        "ScanOptions": "FS",
        "ScanningSequence": "EP",
        "SequenceName": "*epfid2d1_64",
        "SequenceVariant": "SK",
        "SeriesDescription": "ep2d_bold_ad_movie_2A",
        "SeriesNumber": 7,
        "SeriesTime": "161719.046000",
        "SliceLocation": -39.291297570222,
        "SliceThickness": 4.0,
        "SmallestImagePixelValue": 0,
        "SoftwareVersions": "syngo MR B17",
        "SpacingBetweenSlices": 3.9999988457578,
        "SpecificCharacterSet": "ISO_IR 100",
        "StudyID": "1",
        "StudyTime": "155503.890000",
        "TransmitCoilName": "Body",
        "VariableFlipAngleFlag": "N",
        "WindowCenterWidthExplanation": "Algo1",
        "dBdt": 0.0
      },
      "slices": {}
    },
    "modality": "bold",
    "subject_id": "CTS204",
    "task_id": "restmovieadaptive",
    "time": {
      "samples": {
        "AcquisitionNumber": [
          1,
          2,
          3,
          4,
          5,
          6,
          7,
          8,
          9,
          10,
          11,
          12,
          13,
          14,
          15,
          16,
          17,
          18,
          19,
          20,
          21,
          22,
          23,
          24,
          25,
          26,
          27,
          28,
          29,
          30,
          31,
          32,
          33,
          34,
          35,
          36,
          37,
          38,
          39,
          40,
          41,
          42,
          43,
          44,
          45,
          46,
          47,
          48,
          49,
          50,
          51,
          52,
          53,
          54,
          55,
          56,
          57,
          58,
          59,
          60,
          61,
          62,
          63,
          64,
          65,
          66,
          67,
          68,
          69,
          70,
          71,
          72,
          73,
          74,
          75,
          76,
          77,
          78,
          79,
          80,
          81,
          82,
          83,
          84,
          85,
          86,
          87,
          88,
          89,
          90,
          91,
          92,
          93,
          94,
          95,
          96,
          97,
          98,
          99,
          100,
          101,
          102,
          103,
          104,
          105,
          106,
          107,
          108,
          109,
          110,
          111,
          112,
          113,
          114,
          115,
          116,
          117,
          118,
          119,
          120,
          121,
          122,
          123,
          124,
          125,
          126,
          127,
          128,
          129,
          130,
          131,
          132,
          133,
          134,
          135,
          136,
          137,
          138,
          139,
          140,
          141,
          142,
          143,
          144,
          145,
          146,
          147,
          148,
          149,
          150,
          151,
          152,
          153,
          154,
          155,
          156,
          157,
          158,
          159,
          160,
          161,
          162,
          163,
          164
        ],
        "AcquisitionTime": [
          "161717.142500",
          "161719.652500",
          "161722.162500",
          "161724.672500",
          "161727.182500",
          "161729.692500",
          "161732.202500",
          "161734.712500",
          "161737.222500",
          "161739.732500",
          "161742.242500",
          "161744.752500",
          "161747.262500",
          "161749.772500",
          "161752.282500",
          "161754.792500",
          "161757.302500",
          "161759.812500",
          "161802.322500",
          "161804.832500",
          "161807.342500",
          "161809.852500",
          "161812.362500",
          "161814.872500",
          "161817.382500",
          "161819.892500",
          "161822.402500",
          "161824.912500",
          "161827.422500",
          "161829.932500",
          "161832.442500",
          "161834.952500",
          "161837.462500",
          "161839.972500",
          "161842.482500",
          "161844.992500",
          "161847.502500",
          "161850.012500",
          "161852.522500",
          "161855.032500",
          "161857.542500",
          "161900.052500",
          "161902.562500",
          "161905.075000",
          "161907.585000",
          "161910.095000",
          "161912.605000",
          "161915.115000",
          "161917.625000",
          "161920.135000",
          "161922.645000",
          "161925.155000",
          "161927.665000",
          "161930.175000",
          "161932.685000",
          "161935.195000",
          "161937.705000",
          "161940.215000",
          "161942.725000",
          "161945.235000",
          "161947.745000",
          "161950.255000",
          "161952.765000",
          "161955.275000",
          "161957.785000",
          "162000.295000",
          "162002.805000",
          "162005.315000",
          "162007.825000",
          "162010.335000",
          "162012.845000",
          "162015.355000",
          "162017.865000",
          "162020.375000",
          "162022.885000",
          "162025.395000",
          "162027.905000",
          "162030.415000",
          "162032.925000",
          "162035.435000",
          "162037.945000",
          "162040.455000",
          "162042.965000",
          "162045.475000",
          "162047.985000",
          "162050.495000",
          "162053.005000",
          "162055.515000",
          "162058.025000",
          "162100.535000",
          "162103.045000",
          "162105.555000",
          "162108.065000",
          "162110.575000",
          "162113.085000",
          "162115.595000",
          "162118.105000",
          "162120.615000",
          "162123.125000",
          "162125.635000",
          "162128.145000",
          "162130.655000",
          "162133.165000",
          "162135.675000",
          "162138.185000",
          "162140.695000",
          "162143.207500",
          "162145.717500",
          "162148.227500",
          "162150.737500",
          "162153.247500",
          "162155.757500",
          "162158.267500",
          "162200.777500",
          "162203.287500",
          "162205.797500",
          "162208.307500",
          "162210.817500",
          "162213.327500",
          "162215.837500",
          "162218.347500",
          "162220.857500",
          "162223.367500",
          "162225.877500",
          "162228.387500",
          "162230.897500",
          "162233.407500",
          "162235.917500",
          "162238.427500",
          "162240.937500",
          "162243.447500",
          "162245.957500",
          "162248.467500",
          "162250.977500",
          "162253.487500",
          "162255.997500",
          "162258.507500",
          "162301.017500",
          "162303.527500",
          "162306.037500",
          "162308.547500",
          "162311.057500",
          "162313.567500",
          "162316.077500",
          "162318.587500",
          "162321.097500",
          "162323.607500",
          "162326.117500",
          "162328.627500",
          "162331.137500",
          "162333.647500",
          "162336.157500",
          "162338.667500",
          "162341.177500",
          "162343.687500",
          "162346.197500",
          "162348.707500",
          "162351.217500",
          "162353.727500",
          "162356.237500",
          "162358.747500",
          "162401.257500",
          "162403.767500",
          "162406.277500"
        ],
        "ContentTime": [
          "161719.046000",
          "161721.546000",
          "161724.046000",
          "161726.546000",
          "161729.046000",
          "161731.546000",
          "161734.046000",
          "161736.546000",
          "161739.046000",
          "161741.546000",
          "161744.046000",
          "161746.546000",
          "161749.046000",
          "161751.546000",
          "161754.046000",
          "161756.546000",
          "161759.046000",
          "161801.546000",
          "161804.046000",
          "161806.546000",
          "161809.046000",
          "161811.546000",
          "161814.046000",
          "161816.546000",
          "161819.046000",
          "161821.546000",
          "161824.046000",
          "161826.546000",
          "161829.046000",
          "161831.546000",
          "161834.046000",
          "161836.546000",
          "161839.046000",
          "161841.546000",
          "161844.046000",
          "161846.546000",
          "161849.046000",
          "161851.546000",
          "161854.046000",
          "161856.546000",
          "161859.046000",
          "161901.546000",
          "161904.046000",
          "161906.546000",
          "161909.046000",
          "161911.546000",
          "161914.046000",
          "161916.546000",
          "161919.062000",
          "161921.546000",
          "161924.046000",
          "161926.546000",
          "161929.046000",
          "161931.546000",
          "161934.046000",
          "161936.546000",
          "161939.046000",
          "161941.546000",
          "161944.046000",
          "161946.546000",
          "161949.046000",
          "161951.546000",
          "161954.046000",
          "161956.546000",
          "161959.046000",
          "162001.546000",
          "162004.046000",
          "162006.546000",
          "162009.046000",
          "162011.546000",
          "162014.046000",
          "162016.546000",
          "162019.046000",
          "162021.546000",
          "162024.046000",
          "162026.546000",
          "162029.046000",
          "162031.546000",
          "162034.046000",
          "162036.546000",
          "162039.046000",
          "162041.546000",
          "162044.046000",
          "162046.546000",
          "162049.046000",
          "162051.546000",
          "162054.046000",
          "162056.546000",
          "162059.046000",
          "162101.546000",
          "162104.046000",
          "162106.546000",
          "162109.046000",
          "162111.546000",
          "162114.046000",
          "162116.546000",
          "162119.046000",
          "162121.546000",
          "162124.046000",
          "162126.546000",
          "162129.046000",
          "162131.546000",
          "162134.046000",
          "162136.546000",
          "162139.046000",
          "162141.546000",
          "162144.046000",
          "162146.546000",
          "162149.046000",
          "162151.546000",
          "162154.046000",
          "162156.546000",
          "162159.046000",
          "162201.546000",
          "162204.046000",
          "162206.546000",
          "162209.046000",
          "162211.546000",
          "162214.046000",
          "162216.546000",
          "162219.046000",
          "162221.546000",
          "162224.046000",
          "162226.546000",
          "162229.046000",
          "162231.546000",
          "162234.046000",
          "162236.546000",
          "162239.046000",
          "162241.546000",
          "162244.046000",
          "162246.546000",
          "162249.046000",
          "162251.546000",
          "162254.046000",
          "162256.546000",
          "162259.046000",
          "162301.546000",
          "162304.046000",
          "162306.546000",
          "162309.046000",
          "162311.546000",
          "162314.046000",
          "162316.546000",
          "162319.046000",
          "162321.546000",
          "162324.046000",
          "162326.546000",
          "162329.046000",
          "162331.546000",
          "162334.046000",
          "162336.546000",
          "162339.046000",
          "162341.546000",
          "162344.046000",
          "162346.546000",
          "162349.046000",
          "162351.546000",
          "162354.046000",
          "162356.546000",
          "162359.046000",
          "162401.546000",
          "162404.046000",
          "162406.359000"
        ],
        "InstanceCreationTime": [
          "161719.046000",
          "161721.546000",
          "161724.046000",
          "161726.546000",
          "161729.046000",
          "161731.546000",
          "161734.046000",
          "161736.546000",
          "161739.046000",
          "161741.546000",
          "161744.046000",
          "161746.546000",
          "161749.046000",
          "161751.546000",
          "161754.046000",
          "161756.546000",
          "161759.046000",
          "161801.546000",
          "161804.046000",
          "161806.546000",
          "161809.046000",
          "161811.546000",
          "161814.046000",
          "161816.546000",
          "161819.046000",
          "161821.546000",
          "161824.046000",
          "161826.546000",
          "161829.046000",
          "161831.546000",
          "161834.046000",
          "161836.546000",
          "161839.046000",
          "161841.546000",
          "161844.046000",
          "161846.546000",
          "161849.046000",
          "161851.546000",
          "161854.046000",
          "161856.546000",
          "161859.046000",
          "161901.546000",
          "161904.046000",
          "161906.546000",
          "161909.046000",
          "161911.546000",
          "161914.046000",
          "161916.546000",
          "161919.062000",
          "161921.546000",
          "161924.046000",
          "161926.546000",
          "161929.046000",
          "161931.546000",
          "161934.046000",
          "161936.546000",
          "161939.046000",
          "161941.546000",
          "161944.046000",
          "161946.546000",
          "161949.046000",
          "161951.546000",
          "161954.046000",
          "161956.546000",
          "161959.046000",
          "162001.546000",
          "162004.046000",
          "162006.546000",
          "162009.046000",
          "162011.546000",
          "162014.046000",
          "162016.546000",
          "162019.046000",
          "162021.546000",
          "162024.046000",
          "162026.546000",
          "162029.046000",
          "162031.546000",
          "162034.046000",
          "162036.546000",
          "162039.046000",
          "162041.546000",
          "162044.046000",
          "162046.546000",
          "162049.046000",
          "162051.546000",
          "162054.046000",
          "162056.546000",
          "162059.046000",
          "162101.546000",
          "162104.046000",
          "162106.546000",
          "162109.046000",
          "162111.546000",
          "162114.046000",
          "162116.546000",
          "162119.046000",
          "162121.546000",
          "162124.046000",
          "162126.546000",
          "162129.046000",
          "162131.546000",
          "162134.046000",
          "162136.546000",
          "162139.046000",
          "162141.546000",
          "162144.046000",
          "162146.546000",
          "162149.046000",
          "162151.546000",
          "162154.046000",
          "162156.546000",
          "162159.046000",
          "162201.546000",
          "162204.046000",
          "162206.546000",
          "162209.046000",
          "162211.546000",
          "162214.046000",
          "162216.546000",
          "162219.046000",
          "162221.546000",
          "162224.046000",
          "162226.546000",
          "162229.046000",
          "162231.546000",
          "162234.046000",
          "162236.546000",
          "162239.046000",
          "162241.546000",
          "162244.046000",
          "162246.546000",
          "162249.046000",
          "162251.546000",
          "162254.046000",
          "162256.546000",
          "162259.046000",
          "162301.546000",
          "162304.046000",
          "162306.546000",
          "162309.046000",
          "162311.546000",
          "162314.046000",
          "162316.546000",
          "162319.046000",
          "162321.546000",
          "162324.046000",
          "162326.546000",
          "162329.046000",
          "162331.546000",
          "162334.046000",
          "162336.546000",
          "162339.046000",
          "162341.546000",
          "162344.046000",
          "162346.546000",
          "162349.046000",
          "162351.546000",
          "162354.046000",
          "162356.546000",
          "162359.046000",
          "162401.546000",
          "162404.046000",
          "162406.359000"
        ],
        "InstanceNumber": [
          1,
          2,
          3,
          4,
          5,
          6,
          7,
          8,
          9,
          10,
          11,
          12,
          13,
          14,
          15,
          16,
          17,
          18,
          19,
          20,
          21,
          22,
          23,
          24,
          25,
          26,
          27,
          28,
          29,
          30,
          31,
          32,
          33,
          34,
          35,
          36,
          37,
          38,
          39,
          40,
          41,
          42,
          43,
          44,
          45,
          46,
          47,
          48,
          49,
          50,
          51,
          52,
          53,
          54,
          55,
          56,
          57,
          58,
          59,
          60,
          61,
          62,
          63,
          64,
          65,
          66,
          67,
          68,
          69,
          70,
          71,
          72,
          73,
          74,
          75,
          76,
          77,
          78,
          79,
          80,
          81,
          82,
          83,
          84,
          85,
          86,
          87,
          88,
          89,
          90,
          91,
          92,
          93,
          94,
          95,
          96,
          97,
          98,
          99,
          100,
          101,
          102,
          103,
          104,
          105,
          106,
          107,
          108,
          109,
          110,
          111,
          112,
          113,
          114,
          115,
          116,
          117,
          118,
          119,
          120,
          121,
          122,
          123,
          124,
          125,
          126,
          127,
          128,
          129,
          130,
          131,
          132,
          133,
          134,
          135,
          136,
          137,
          138,
          139,
          140,
          141,
          142,
          143,
          144,
          145,
          146,
          147,
          148,
          149,
          150,
          151,
          152,
          153,
          154,
          155,
          156,
          157,
          158,
          159,
          160,
          161,
          162,
          163,
          164
        ],
        "LargestImagePixelValue": [
          1624,
          1839,
          1641,
          1465,
          1642,
          1657,
          1663,
          1746,
          1649,
          1743,
          1893,
          1844,
          1751,
          1672,
          1678,
          1704,
          1812,
          1915,
          1909,
          1756,
          1751,
          1707,
          1895,
          1885,
          1685,
          1486,
          1715,
          1942,
          1838,
          1586,
          1670,
          1938,
          2023,
          1905,
          1877,
          1590,
          1517,
          1705,
          1670,
          1716,
          1914,
          1900,
          1794,
          1492,
          1665,
          1605,
          1602,
          1664,
          1688,
          1463,
          1712,
          1834,
          1905,
          1692,
          1579,
          1676,
          1626,
          1531,
          1539,
          1619,
          1639,
          1667,
          1766,
          1772,
          1764,
          1783,
          1741,
          1611,
          1692,
          1651,
          1485,
          1564,
          1546,
          1638,
          1868,
          1751,
          1601,
          1667,
          2036,
          1822,
          1601,
          1777,
          1914,
          1890,
          1729,
          1580,
          1533,
          1547,
          1923,
          1664,
          1803,
          1913,
          1703,
          1471,
          1437,
          1615,
          1906,
          1857,
          1627,
          1604,
          1545,
          1989,
          1771,
          1687,
          1641,
          1631,
          1646,
          1700,
          1602,
          1557,
          1777,
          1703,
          1635,
          1647,
          1558,
          2012,
          1735,
          1613,
          1620,
          1534,
          1985,
          1473,
          1552,
          1668,
          1602,
          1538,
          1597,
          1907,
          1746,
          1553,
          1397,
          1484,
          2035,
          1727,
          1459,
          1884,
          1679,
          1607,
          1561,
          1959,
          1641,
          1483,
          1498,
          1905,
          1707,
          1706,
          1639,
          1600,
          1443,
          1485,
          1618,
          1946,
          1692,
          1609,
          1538,
          1629,
          1520,
          1505,
          1595,
          1591,
          1465,
          1544,
          1610,
          1809
        ],
        "WindowCenter": [
          627.0,
          627.0,
          625.0,
          625.0,
          627.0,
          627.0,
          625.0,
          626.0,
          626.0,
          627.0,
          625.0,
          626.0,
          626.0,
          625.0,
          626.0,
          626.0,
          625.0,
          626.0,
          626.0,
          625.0,
          627.0,
          626.0,
          627.0,
          626.0,
          623.0,
          624.0,
          624.0,
          626.0,
          625.0,
          625.0,
          626.0,
          627.0,
          626.0,
          625.0,
          624.0,
          624.0,
          625.0,
          625.0,
          626.0,
          625.0,
          628.0,
          625.0,
          626.0,
          625.0,
          625.0,
          626.0,
          625.0,
          625.0,
          625.0,
          624.0,
          627.0,
          626.0,
          626.0,
          626.0,
          624.0,
          625.0,
          625.0,
          625.0,
          623.0,
          624.0,
          624.0,
          624.0,
          626.0,
          626.0,
          625.0,
          626.0,
          625.0,
          625.0,
          626.0,
          625.0,
          626.0,
          625.0,
          625.0,
          627.0,
          628.0,
          626.0,
          625.0,
          624.0,
          627.0,
          626.0,
          625.0,
          625.0,
          626.0,
          625.0,
          625.0,
          626.0,
          625.0,
          626.0,
          626.0,
          626.0,
          625.0,
          626.0,
          625.0,
          625.0,
          626.0,
          627.0,
          627.0,
          624.0,
          624.0,
          625.0,
          624.0,
          626.0,
          625.0,
          626.0,
          624.0,
          627.0,
          626.0,
          625.0,
          624.0,
          624.0,
          626.0,
          625.0,
          625.0,
          626.0,
          627.0,
          627.0,
          626.0,
          625.0,
          624.0,
          625.0,
          626.0,
          626.0,
          626.0,
          626.0,
          625.0,
          625.0,
          626.0,
          626.0,
          625.0,
          625.0,
          624.0,
          626.0,
          626.0,
          624.0,
          623.0,
          627.0,
          626.0,
          625.0,
          625.0,
          627.0,
          625.0,
          625.0,
          625.0,
          625.0,
          626.0,
          625.0,
          627.0,
          625.0,
          624.0,
