{
  "aor": 0.06171353658536586,
  "aqi": 0.07307802621951219,
  "bids_meta": {
    "AcquisitionMatrixPE": 64,
    "AcquisitionNumber": 1,
    "AcquisitionTime": "13:36:56.722500",
    "BandwidthPerPixelPhaseEncode": 26.483,
    "BaseResolution": 64,
    "BodyPartExamined": "HEAD",
    "CogAtlasID": "TODO",
    "ConversionSoftware": "dcm2niix",
    "ConversionSoftwareVersion": "v1.0.20171017 GCC6.3.0",
    "DerivedVendorReportedEchoSpacing": 0.000590001,
    "DeviceSerialNumber": "35177",
    "DwellTime": 4.1e-06,
    "EchoTime": 0.027,
    "EffectiveEchoSpacing": 0.000590001,
    "FlipAngle": 90,
    "ImageOrientationPatientDICOM": [
      0.996669,
      -0.0739124,
      -0.0344799,
      0.0789644,
      0.980276,
      0.181174
    ],
    "ImageType": [
      "ORIGINAL",
      "PRIMARY",
      "M",
      "ND",
      "NORM",
      "MOSAIC"
    ],
    "InPlanePhaseEncodingDirectionDICOM": "COL",
    "InstitutionAddress": "Scott_Ave._4525_St._Louis_MO_US_63110",
    "InstitutionName": "Washington_University",
    "InstitutionalDepartmentName": "Department",
    "MRAcquisitionType": "2D",
    "MagneticFieldStrength": 3,
    "Manufacturer": "Siemens",
    "ManufacturersModelName": "TrioTim",
    "Modality": "MR",
    "PartialFourier": 1,
    "PatientPosition": "HFS",
    "PercentPhaseFOV": 100,
    "PhaseEncodingDirection": "j-",
    "PhaseEncodingSteps": 64,
    "PhaseResolution": 1,
    "PixelBandwidth": 1905,
    "ProcedureStepDescription": "head_GREENE",
    "ProtocolName": "ep2d_bold_nonad_rest",
    "PulseSequenceDetails": "%SiemensSeq%_ep2d_bold",
    "ReceiveCoilName": "HeadMatrix",
    "ReconMatrixPE": 64,
    "RepetitionTime": 2.5,
    "SAR": 0.162988,
    "ScanOptions": "FS",
    "ScanningSequence": "EP",
    "SequenceName": "_epfid2d1_64",
    "SequenceVariant": "SK",
    "SeriesDescription": "ep2d_bold_nonad_rest",
    "SeriesNumber": 7,
    "ShimSetting": [
      -224,
      -19688,
      7998,
      280,
      88,
      -552,
      173,
      -28
    ],
    "SliceThickness": 4,
    "SliceTiming": [
      1.255,
      0,
      1.3325,
      0.0775,
      1.4125,
      0.1575,
      1.49,
      0.235,
      1.5675,
      0.3125,
      1.6475,
      0.3925,
      1.725,
      0.47,
      1.8025,
      0.55,
      1.8825,
      0.6275,
      1.96,
      0.705,
      2.04,
      0.785,
      2.1175,
      0.8625,
      2.195,
      0.94,
      2.275,
      1.02,
      2.3525,
      1.0975,
      2.43,
      1.175
    ],
    "SoftwareVersions": "syngo_MR_B17",
    "SpacingBetweenSlices": 4,
    "StationName": "MRC35177",
    "TaskName": "restfixationfixed",
    "TotalReadoutTime": 0.0371701,
    "TxRefAmp": 341.225,
    "dataset": "ds000256",
    "dcmmeta_affine": [
      [
        -3.9866740703582764,
        0.31585779786109924,
        -0.08163540065288544,
        118.20162200927734
      ],
      [
        0.29564952850341797,
        3.9211032390594482,
        0.7331713438034058,
        -140.41909790039062
      ],
      [
        -0.13791970908641815,
        -0.724695086479187,
        3.931385040283203,
        5.164867401123047
      ],
      [
        0.0,
        0.0,
        0.0,
        1.0
      ]
    ],
    "dcmmeta_reorient_transform": [
      [
        0.0,
        -1.0,
        0.0,
        63.0
      ],
      [
        1.0,
        0.0,
        0.0,
        0.0
      ],
      [
        0.0,
        0.0,
        1.0,
        0.0
      ],
      [
        0.0,
        0.0,
        0.0,
        1.0
      ]
    ],
    "dcmmeta_shape": [
      64,
      64,
      32,
      164
    ],
    "dcmmeta_slice_dim": 2,
    "dcmmeta_version": 0.6,
    "global": {
      "const": {
        "AccessionNumber": ".",
        "AcquisitionMatrix": [
          64,
          0,
          0,
          64
        ],
        "AngioFlag": "N",
        "BitsAllocated": 16,
        "BitsStored": 12,
        "BodyPartExamined": "HEAD",
        "Columns": 384,
        "DeidentificationMethodCodeSequence": [
          {
            "CodeMeaning": "XNAT Edit Script",
            "CodeValue": "625500",
            "CodingSchemeDesignator": "XNAT",
            "CodingSchemeVersion": "0.1"
          }
        ],
        "EchoNumbers": 1,
        "EchoTime": 27.0,
        "EchoTrainLength": 1,
        "FlipAngle": 90.0,
        "HighBit": 11,
        "ImageOrientationPatient": [
          0.99666849744438,
          -0.0739123853866,
          -0.0344799287763,
          0.07896445310687,
          0.98027581784614,
          0.18117377318918
        ],
        "ImagePositionPatient": [
          -826.50575073676,
          -686.68300808141,
          -134.37498383721
        ],
        "ImageType": [
          "ORIGINAL",
          "PRIMARY",
          "M",
          "ND",
          "NORM",
          "MOSAIC"
        ],
        "ImagedNucleus": "1H",
        "ImagingFrequency": 123.255771,
        "InPlanePhaseEncodingDirection": "COL",
        "MRAcquisitionType": "2D",
        "MagneticFieldStrength": 3.0,
        "Manufacturer": "SIEMENS",
        "ManufacturerModelName": "TrioTim",
        "Modality": "MR",
        "NumberOfAverages": 1.0,
        "NumberOfPhaseEncodingSteps": 64,
        "PercentPhaseFieldOfView": 100.0,
        "PercentSampling": 100.0,
        "PerformedProcedureStepStartTime": "131250.515000",
        "PhotometricInterpretation": "MONOCHROME2",
        "PixelBandwidth": 1905.0,
        "PixelRepresentation": 0,
        "PixelSpacing": [
          4.0,
          4.0
        ],
        "PositionReferenceIndicator": "",
        "ProtocolName": "ep2d_bold_nonad_rest",
        "RepetitionTime": 2500.0,
        "Rows": 384,
        "SAR": 0.16298810237477,
        "SamplesPerPixel": 1,
        "ScanOptions": "FS",
        "ScanningSequence": "EP",
        "SequenceName": "*epfid2d1_64",
        "SequenceVariant": "SK",
        "SeriesDescription": "ep2d_bold_nonad_rest",
        "SeriesNumber": 7,
        "SeriesTime": "133658.828000",
        "SliceLocation": -23.073908357237,
        "SliceThickness": 4.0,
        "SmallestImagePixelValue": 0,
        "SoftwareVersions": "syngo MR B17",
        "SpacingBetweenSlices": 3.9999989970541,
        "SpecificCharacterSet": "ISO_IR 100",
        "StudyID": "1",
        "StudyTime": "131250.484000",
        "TransmitCoilName": "Body",
        "VariableFlipAngleFlag": "N",
        "WindowCenterWidthExplanation": "Algo1",
        "dBdt": 0.0
      },
      "slices": {}
    },
    "modality": "bold",
    "subject_id": "CTS203",
    "task_id": "restfixationfixed",
    "time": {
      "samples": {
        "AcquisitionNumber": [
          1,
          2,
          3,
          4,
          5,
          6,
          7,
          8,
          9,
          10,
          11,
          12,
          13,
          14,
          15,
          16,
          17,
          18,
          19,
          20,
          21,
          22,
          23,
          24,
          25,
          26,
          27,
          28,
          29,
          30,
          31,
          32,
          33,
          34,
          35,
          36,
          37,
          38,
          39,
          40,
          41,
          42,
          43,
          44,
          45,
          46,
          47,
          48,
          49,
          50,
          51,
          52,
          53,
          54,
          55,
          56,
          57,
          58,
          59,
          60,
          61,
          62,
          63,
          64,
          65,
          66,
          67,
          68,
          69,
          70,
          71,
          72,
          73,
          74,
          75,
          76,
          77,
          78,
          79,
          80,
          81,
          82,
          83,
          84,
          85,
          86,
          87,
          88,
          89,
          90,
          91,
          92,
          93,
          94,
          95,
          96,
          97,
          98,
          99,
          100,
          101,
          102,
          103,
          104,
          105,
          106,
          107,
          108,
          109,
          110,
          111,
          112,
          113,
          114,
          115,
          116,
          117,
          118,
          119,
          120,
          121,
          122,
          123,
          124,
          125,
          126,
          127,
          128,
          129,
          130,
          131,
          132,
          133,
          134,
          135,
          136,
          137,
          138,
          139,
          140,
          141,
          142,
          143,
          144,
          145,
          146,
          147,
          148,
          149,
          150,
          151,
          152,
          153,
          154,
          155,
          156,
          157,
          158,
          159,
          160,
          161,
          162,
          163,
          164
        ],
        "AcquisitionTime": [
          "133656.722500",
          "133659.232500",
          "133701.742500",
          "133704.252500",
          "133706.762500",
          "133709.272500",
          "133711.782500",
          "133714.292500",
          "133716.802500",
          "133719.312500",
          "133721.822500",
          "133724.332500",
          "133726.842500",
          "133729.352500",
          "133731.862500",
          "133734.372500",
          "133736.882500",
          "133739.392500",
          "133741.902500",
          "133744.412500",
          "133746.922500",
          "133749.432500",
          "133751.942500",
          "133754.452500",
          "133756.962500",
          "133759.472500",
          "133801.982500",
          "133804.492500",
          "133807.002500",
          "133809.512500",
          "133812.022500",
          "133814.532500",
          "133817.042500",
          "133819.552500",
          "133822.062500",
          "133824.572500",
          "133827.082500",
          "133829.592500",
          "133832.102500",
          "133834.612500",
          "133837.122500",
          "133839.632500",
          "133842.145000",
          "133844.655000",
          "133847.165000",
          "133849.675000",
          "133852.185000",
          "133854.695000",
          "133857.205000",
          "133859.715000",
          "133902.225000",
          "133904.735000",
          "133907.245000",
          "133909.755000",
          "133912.265000",
          "133914.775000",
          "133917.285000",
          "133919.795000",
          "133922.305000",
          "133924.815000",
          "133927.325000",
          "133929.835000",
          "133932.345000",
          "133934.855000",
          "133937.365000",
          "133939.875000",
          "133942.385000",
          "133944.895000",
          "133947.405000",
          "133949.915000",
          "133952.425000",
          "133954.935000",
          "133957.445000",
          "133959.955000",
          "134002.465000",
          "134004.975000",
          "134007.485000",
          "134009.995000",
          "134012.505000",
          "134015.015000",
          "134017.525000",
          "134020.035000",
          "134022.545000",
          "134025.055000",
          "134027.565000",
          "134030.075000",
          "134032.585000",
          "134035.095000",
          "134037.605000",
          "134040.115000",
          "134042.625000",
          "134045.135000",
          "134047.645000",
          "134050.155000",
          "134052.665000",
          "134055.175000",
          "134057.685000",
          "134100.195000",
          "134102.705000",
          "134105.215000",
          "134107.725000",
          "134110.235000",
          "134112.745000",
          "134115.255000",
          "134117.765000",
          "134120.277500",
          "134122.787500",
          "134125.297500",
          "134127.807500",
          "134130.317500",
          "134132.827500",
          "134135.337500",
          "134137.847500",
          "134140.357500",
          "134142.867500",
          "134145.377500",
          "134147.887500",
          "134150.397500",
          "134152.907500",
          "134155.417500",
          "134157.927500",
          "134200.437500",
          "134202.947500",
          "134205.457500",
          "134207.967500",
          "134210.477500",
          "134212.987500",
          "134215.497500",
          "134218.007500",
          "134220.517500",
          "134223.027500",
          "134225.537500",
          "134228.047500",
          "134230.557500",
          "134233.067500",
          "134235.577500",
          "134238.087500",
          "134240.597500",
          "134243.107500",
          "134245.617500",
          "134248.127500",
          "134250.637500",
          "134253.147500",
          "134255.657500",
          "134258.167500",
          "134300.677500",
          "134303.187500",
          "134305.697500",
          "134308.207500",
          "134310.717500",
          "134313.227500",
          "134315.737500",
          "134318.247500",
          "134320.757500",
          "134323.267500",
          "134325.777500",
          "134328.287500",
          "134330.797500",
          "134333.307500",
          "134335.817500",
          "134338.327500",
          "134340.837500",
          "134343.347500",
          "134345.857500"
        ],
        "ContentTime": [
          "133658.843000",
          "133701.328000",
          "133703.828000",
          "133706.328000",
          "133708.828000",
          "133711.328000",
          "133713.828000",
          "133716.328000",
          "133718.828000",
          "133721.328000",
          "133723.828000",
          "133726.328000",
          "133728.828000",
          "133731.328000",
          "133733.828000",
          "133736.328000",
          "133738.828000",
          "133741.328000",
          "133743.828000",
          "133746.328000",
          "133748.828000",
          "133751.328000",
          "133753.828000",
          "133756.328000",
          "133758.828000",
          "133801.328000",
          "133803.828000",
          "133806.328000",
          "133808.828000",
          "133811.328000",
          "133813.828000",
          "133816.328000",
          "133818.828000",
          "133821.328000",
          "133823.828000",
          "133826.328000",
          "133828.828000",
          "133831.328000",
          "133833.828000",
          "133836.328000",
          "133838.828000",
          "133841.328000",
          "133843.828000",
          "133846.328000",
          "133848.828000",
          "133851.328000",
          "133853.828000",
          "133856.328000",
          "133858.828000",
          "133901.328000",
          "133903.828000",
          "133906.328000",
          "133908.828000",
          "133911.328000",
          "133913.828000",
          "133916.328000",
          "133918.828000",
          "133921.328000",
          "133923.828000",
          "133926.328000",
          "133928.828000",
          "133931.328000",
          "133933.828000",
          "133936.328000",
          "133938.828000",
          "133941.328000",
          "133943.828000",
          "133946.328000",
          "133948.828000",
          "133951.328000",
          "133953.828000",
          "133956.328000",
          "133958.828000",
          "134001.328000",
          "134003.828000",
          "134006.328000",
          "134008.828000",
          "134011.328000",
          "134013.828000",
          "134016.328000",
          "134018.828000",
          "134021.328000",
          "134023.828000",
          "134026.328000",
          "134028.828000",
          "134031.343000",
          "134033.828000",
          "134036.328000",
          "134038.828000",
          "134041.328000",
          "134043.828000",
          "134046.328000",
          "134048.828000",
          "134051.328000",
          "134053.828000",
          "134056.328000",
          "134058.828000",
          "134101.328000",
          "134103.828000",
          "134106.328000",
          "134108.828000",
          "134111.328000",
          "134113.828000",
          "134116.328000",
          "134118.828000",
          "134121.328000",
          "134123.828000",
          "134126.328000",
          "134128.828000",
          "134131.328000",
          "134133.828000",
          "134136.328000",
          "134138.828000",
          "134141.328000",
          "134143.828000",
          "134146.328000",
          "134148.828000",
          "134151.343000",
          "134153.828000",
          "134156.328000",
          "134158.828000",
          "134201.328000",
          "134203.828000",
          "134206.328000",
          "134208.828000",
          "134211.328000",
          "134213.828000",
          "134216.328000",
          "134218.828000",
          "134221.328000",
          "134223.828000",
          "134226.328000",
          "134228.828000",
          "134231.328000",
          "134233.828000",
          "134236.328000",
          "134238.828000",
          "134241.328000",
          "134243.828000",
          "134246.328000",
          "134248.828000",
          "134251.328000",
          "134253.828000",
          "134256.328000",
          "134258.828000",
          "134301.328000",
          "134303.828000",
          "134306.328000",
          "134308.828000",
          "134311.328000",
          "134313.828000",
          "134316.328000",
          "134318.828000",
          "134321.328000",
          "134323.828000",
          "134326.328000",
          "134328.828000",
          "134331.328000",
          "134333.828000",
          "134336.328000",
          "134338.828000",
          "134341.328000",
          "134343.828000",
          "134346.218000"
        ],
        "InstanceCreationTime": [
          "133658.843000",
          "133701.328000",
          "133703.828000",
          "133706.328000",
          "133708.828000",
          "133711.328000",
          "133713.828000",
          "133716.328000",
          "133718.828000",
          "133721.328000",
          "133723.828000",
          "133726.328000",
          "133728.828000",
          "133731.328000",
          "133733.828000",
          "133736.328000",
          "133738.828000",
          "133741.328000",
          "133743.828000",
          "133746.328000",
          "133748.828000",
          "133751.328000",
          "133753.828000",
          "133756.328000",
          "133758.828000",
          "133801.328000",
          "133803.828000",
          "133806.328000",
          "133808.828000",
          "133811.328000",
          "133813.828000",
          "133816.328000",
          "133818.828000",
          "133821.328000",
          "133823.828000",
          "133826.328000",
          "133828.828000",
          "133831.328000",
          "133833.828000",
          "133836.328000",
          "133838.828000",
          "133841.328000",
          "133843.828000",
          "133846.328000",
          "133848.828000",
          "133851.328000",
          "133853.828000",
          "133856.328000",
          "133858.828000",
          "133901.328000",
          "133903.828000",
          "133906.328000",
          "133908.828000",
          "133911.328000",
          "133913.828000",
          "133916.328000",
          "133918.828000",
          "133921.328000",
          "133923.828000",
          "133926.328000",
          "133928.828000",
          "133931.328000",
          "133933.828000",
          "133936.328000",
          "133938.828000",
          "133941.328000",
          "133943.828000",
          "133946.328000",
          "133948.828000",
          "133951.328000",
          "133953.828000",
          "133956.328000",
          "133958.828000",
          "134001.328000",
          "134003.828000",
          "134006.328000",
          "134008.828000",
          "134011.328000",
          "134013.828000",
          "134016.328000",
          "134018.828000",
          "134021.328000",
          "134023.828000",
          "134026.328000",
          "134028.828000",
          "134031.343000",
          "134033.828000",
          "134036.328000",
          "134038.828000",
          "134041.328000",
          "134043.828000",
          "134046.328000",
          "134048.828000",
          "134051.328000",
          "134053.828000",
          "134056.328000",
          "134058.828000",
          "134101.328000",
          "134103.828000",
          "134106.328000",
          "134108.828000",
          "134111.328000",
          "134113.828000",
          "134116.328000",
          "134118.828000",
          "134121.328000",
          "134123.828000",
          "134126.328000",
          "134128.828000",
          "134131.328000",
          "134133.828000",
          "134136.328000",
          "134138.828000",
          "134141.328000",
          "134143.828000",
          "134146.328000",
          "134148.828000",
          "134151.343000",
          "134153.828000",
          "134156.328000",
          "134158.828000",
          "134201.328000",
          "134203.828000",
          "134206.328000",
          "134208.828000",
          "134211.328000",
          "134213.828000",
          "134216.328000",
          "134218.828000",
          "134221.328000",
          "134223.828000",
          "134226.328000",
          "134228.828000",
          "134231.328000",
          "134233.828000",
          "134236.328000",
          "134238.828000",
          "134241.328000",
          "134243.828000",
          "134246.328000",
          "134248.828000",
          "134251.328000",
          "134253.828000",
          "134256.328000",
          "134258.828000",
          "134301.328000",
          "134303.828000",
          "134306.328000",
          "134308.828000",
          "134311.328000",
          "134313.828000",
          "134316.328000",
          "134318.828000",
          "134321.328000",
          "134323.828000",
          "134326.328000",
          "134328.828000",
          "134331.328000",
          "134333.828000",
          "134336.328000",
          "134338.828000",
          "134341.328000",
          "134343.828000",
          "134346.218000"
        ],
        "InstanceNumber": [
          1,
          2,
          3,
          4,
          5,
          6,
          7,
          8,
          9,
          10,
          11,
          12,
          13,
          14,
          15,
          16,
          17,
          18,
          19,
          20,
          21,
          22,
          23,
          24,
          25,
          26,
          27,
          28,
          29,
          30,
          31,
          32,
          33,
          34,
          35,
          36,
          37,
          38,
          39,
          40,
          41,
          42,
          43,
          44,
          45,
          46,
          47,
          48,
          49,
          50,
          51,
          52,
          53,
          54,
          55,
          56,
          57,
          58,
          59,
          60,
          61,
          62,
          63,
          64,
          65,
          66,
          67,
          68,
          69,
          70,
          71,
          72,
          73,
          74,
          75,
          76,
          77,
          78,
          79,
          80,
          81,
          82,
          83,
          84,
          85,
          86,
          87,
          88,
          89,
          90,
          91,
          92,
          93,
          94,
          95,
          96,
          97,
          98,
          99,
          100,
          101,
          102,
          103,
          104,
          105,
          106,
          107,
          108,
          109,
          110,
          111,
          112,
          113,
          114,
          115,
          116,
          117,
          118,
          119,
          120,
          121,
          122,
          123,
          124,
          125,
          126,
          127,
          128,
          129,
          130,
          131,
          132,
          133,
          134,
          135,
          136,
          137,
          138,
          139,
          140,
          141,
          142,
          143,
          144,
          145,
          146,
          147,
          148,
          149,
          150,
          151,
          152,
          153,
          154,
          155,
          156,
          157,
          158,
          159,
          160,
          161,
          162,
          163,
          164
        ],
        "LargestImagePixelValue": [
          1078,
          1001,
          1020,
          1125,
          1005,
          1015,
          1068,
          970,
          960,
          1054,
          1117,
          958,
          953,
          980,
          1218,
          1035,
          1011,
          1007,
          1031,
          947,
          1092,
          1009,
          1031,
          965,
          1052,
          1038,
          994,
          1139,
          1118,
          1013,
          1071,
          996,
          1120,
          1116,
          1174,
          1138,
          1052,
          1150,
          1063,
          1222,
          1044,
          1173,
          1160,
          1214,
          1071,
          1057,
          1112,
          1231,
          1025,
          1103,
          1074,
          1104,
          1227,
          1138,
          1034,
          942,
          1029,
          1181,
          1190,
          1196,
          978,
          1059,
          1103,
          1003,
          1176,
          1063,
          1063,
          1055,
          1072,
          1210,
          1028,
          1199,
          1159,
          1052,
          1184,
          1075,
          1078,
          1080,
          1017,
          1210,
          1071,
          975,
          1144,
          1021,
          1036,
          983,
          1102,
          1087,
          1043,
          1025,
          1120,
          1155,
          1017,
          1219,
          972,
          1076,
          1088,
          1103,
          1033,
          1014,
          1076,
          1123,
          1152,
          1040,
          1060,
          999,
          1129,
          1240,
          1053,
          1091,
          1353,
          1022,
          1044,
          1087,
          1032,
          993,
          1047,
          1039,
          1158,
          1308,
          1061,
          959,
          959,
          960,
          940,
          972,
          960,
          940,
          1037,
          1024,
          957,
          942,
          1079,
          1011,
          1144,
          1008,
          974,
          988,
          969,
          964,
          1001,
          1055,
          1203,
          1034,
          969,
          1096,
          1255,
          1197,
          1271,
          998,
          1031,
          1068,
          1083,
          1310,
          1607,
          1131,
          1000,
          1213,
          1015,
          985,
          1137,
          1145,
          1195,
          1038
        ],
        "WindowCenter": [
          518.0,
          517.0,
          517.0,
          518.0,
          516.0,
          519.0,
          519.0,
          520.0,
          517.0,
          518.0,
          517.0,
          515.0,
          514.0,
          518.0,
          519.0,
          517.0,
          516.0,
          516.0,
          520.0,
          518.0,
          518.0,
          517.0,
          518.0,
          519.0,
          518.0,
          518.0,
          517.0,
          519.0,
          518.0,
          521.0,
          519.0,
          518.0,
          519.0,
          516.0,
          520.0,
          520.0,
          519.0,
          516.0,
          515.0,
          513.0,
          516.0,
          521.0,
          519.0,
          519.0,
          518.0,
          516.0,
          517.0,
          518.0,
          517.0,
          519.0,
          517.0,
          517.0,
          516.0,
          515.0,
          517.0,
          513.0,
          514.0,
          519.0,
          516.0,
          520.0,
          516.0,
          516.0,
          519.0,
          519.0,
          518.0,
          516.0,
          518.0,
          517.0,
          517.0,
          519.0,
          517.0,
          518.0,
          517.0,
          519.0,
          517.0,
          516.0,
          518.0,
          518.0,
          519.0,
          521.0,
          514.0,
          516.0,
          517.0,
          517.0,
          518.0,
          518.0,
          517.0,
          517.0,
          517.0,
          520.0,
          519.0,
          516.0,
          515.0,
          517.0,
          516.0,
          516.0,
          518.0,
          518.0,
          513.0,
          518.0,
          516.0,
          518.0,
          516.0,
          517.0,
          516.0,
          475.0,
          523.0,
          510.0,
          515.0,
          481.0,
          491.0,
          474.0,
          510.0,
          509.0,
          489.0,
          505.0,
          494.0,
          500.0,
          494.0,
          492.0,
          504.0,
          507.0,
          503.0,
          509.0,
          494.0,
          507.0,
          511.0,
          511.0,
          512.0,
          510.0,
          509.0,
          509.0,
          511.0,
          510.0,
          512.0,
          510.0,
          508.0,
          512.0,
          510.0,
          496.0,
          515.0,
          518.0,
          523.0,
          520.0,
          511.0,
          522.0,
          516.0,
          511.0,
          515.0,
          513.0,
          511.0,
