{
  "aor": 0.01584518292682927,
  "aqi": 0.013201601829268293,
  "bids_meta": {
    "AcquisitionMatrixPE": 64,
    "AcquisitionNumber": 1,
    "AcquisitionTime": "13:56:12.020000",
    "BandwidthPerPixelPhaseEncode": 26.483,
    "BaseResolution": 64,
    "BodyPartExamined": "HEAD",
    "CogAtlasID": "TODO",
    "ConversionSoftware": "dcm2niix",
    "ConversionSoftwareVersion": "v1.0.20171017 GCC6.3.0",
    "DerivedVendorReportedEchoSpacing": 0.000590001,
    "DeviceSerialNumber": "35177",
    "DwellTime": 4.1e-06,
    "EchoTime": 0.027,
    "EffectiveEchoSpacing": 0.000590001,
    "FlipAngle": 90,
    "ImageOrientationPatientDICOM": [
      0.996669,
      -0.0739124,
      -0.0344799,
      0.0789644,
      0.980276,
      0.181174
    ],
    "ImageType": [
      "ORIGINAL",
      "PRIMARY",
      "M",
      "ND",
      "NORM",
      "MOSAIC"
    ],
    "InPlanePhaseEncodingDirectionDICOM": "COL",
    "InstitutionAddress": "Scott_Ave._4525_St._Louis_MO_US_63110",
    "InstitutionName": "Washington_University",
    "InstitutionalDepartmentName": "Department",
    "MRAcquisitionType": "2D",
    "MagneticFieldStrength": 3,
    "Manufacturer": "Siemens",
    "ManufacturersModelName": "TrioTim",
    "Modality": "MR",
    "PartialFourier": 1,
    "PatientPosition": "HFS",
    "PercentPhaseFOV": 100,
    "PhaseEncodingDirection": "j-",
    "PhaseEncodingSteps": 64,
    "PhaseResolution": 1,
    "PixelBandwidth": 1905,
    "ProcedureStepDescription": "head_GREENE",
    "ProtocolName": "ep2d_bold_nonad_movie_1B",
    "PulseSequenceDetails": "%SiemensSeq%_ep2d_bold",
    "ReceiveCoilName": "HeadMatrix",
    "ReconMatrixPE": 64,
    "RepetitionTime": 2.5,
    "SAR": 0.162988,
    "ScanOptions": "FS",
    "ScanningSequence": "EP",
    "SequenceName": "_epfid2d1_64",
    "SequenceVariant": "SK",
    "SeriesDescription": "ep2d_bold_nonad_movie_1B",
    "SeriesNumber": 10,
    "ShimSetting": [
      -224,
      -19688,
      7998,
      280,
      88,
      -552,
      173,
      -28
    ],
    "SliceThickness": 4,
    "SliceTiming": [
      1.255,
      0,
      1.3325,
      0.0775,
      1.4125,
      0.1575,
      1.49,
      0.235,
      1.5675,
      0.315,
      1.6475,
      0.3925,
      1.725,
      0.47,
      1.805,
      0.55,
      1.8825,
      0.6275,
      1.96,
      0.705,
      2.04,
      0.785,
      2.1175,
      0.8625,
      2.195,
      0.94,
      2.275,
      1.02,
      2.3525,
      1.0975,
      2.43,
      1.1775
    ],
    "SoftwareVersions": "syngo_MR_B17",
    "SpacingBetweenSlices": 4,
    "StationName": "MRC35177",
    "TaskName": "restmoviefixed",
    "TotalReadoutTime": 0.0371701,
    "TxRefAmp": 341.225,
    "dataset": "ds000256",
    "dcmmeta_affine": [
      [
        -3.9866740703582764,
        0.31585779786109924,
        -0.08163540065288544,
        118.20162200927734
      ],
      [
        0.29564952850341797,
        3.9211032390594482,
        0.7331713438034058,
        -140.41909790039062
      ],
      [
        -0.13791970908641815,
        -0.724695086479187,
        3.931385040283203,
        5.164867401123047
      ],
      [
        0.0,
        0.0,
        0.0,
        1.0
      ]
    ],
    "dcmmeta_reorient_transform": [
      [
        0.0,
        -1.0,
        0.0,
        63.0
      ],
      [
        1.0,
        0.0,
        0.0,
        0.0
      ],
      [
        0.0,
        0.0,
        1.0,
        0.0
      ],
      [
        0.0,
        0.0,
        0.0,
        1.0
      ]
    ],
    "dcmmeta_shape": [
      64,
      64,
      32,
      164
    ],
    "dcmmeta_slice_dim": 2,
    "dcmmeta_version": 0.6,
    "global": {
      "const": {
        "AccessionNumber": ".",
        "AcquisitionMatrix": [
          64,
          0,
          0,
          64
        ],
        "AngioFlag": "N",
        "BitsAllocated": 16,
        "BitsStored": 12,
        "BodyPartExamined": "HEAD",
        "Columns": 384,
        "DeidentificationMethodCodeSequence": [
          {
            "CodeMeaning": "XNAT Edit Script",
            "CodeValue": "625500",
            "CodingSchemeDesignator": "XNAT",
            "CodingSchemeVersion": "0.1"
          }
        ],
        "EchoNumbers": 1,
        "EchoTime": 27.0,
        "EchoTrainLength": 1,
        "FlipAngle": 90.0,
        "HighBit": 11,
        "ImageOrientationPatient": [
          0.99666849744438,
          -0.0739123853866,
          -0.0344799287763,
          0.07896445310687,
          0.98027581784614,
          0.18117377318918
        ],
        "ImagePositionPatient": [
          -826.50575073676,
          -686.68300808141,
          -134.37498383721
        ],
        "ImageType": [
          "ORIGINAL",
          "PRIMARY",
          "M",
          "ND",
          "NORM",
          "MOSAIC"
        ],
        "ImagedNucleus": "1H",
        "ImagingFrequency": 123.255754,
        "InPlanePhaseEncodingDirection": "COL",
        "MRAcquisitionType": "2D",
        "MagneticFieldStrength": 3.0,
        "Manufacturer": "SIEMENS",
        "ManufacturerModelName": "TrioTim",
        "Modality": "MR",
        "NumberOfAverages": 1.0,
        "NumberOfPhaseEncodingSteps": 64,
        "PercentPhaseFieldOfView": 100.0,
        "PercentSampling": 100.0,
        "PerformedProcedureStepStartTime": "131250.515000",
        "PhotometricInterpretation": "MONOCHROME2",
        "PixelBandwidth": 1905.0,
        "PixelRepresentation": 0,
        "PixelSpacing": [
          4.0,
          4.0
        ],
        "PositionReferenceIndicator": "",
        "ProtocolName": "ep2d_bold_nonad_movie_1B",
        "RepetitionTime": 2500.0,
        "Rows": 384,
        "SAR": 0.16298810237477,
        "SamplesPerPixel": 1,
        "ScanOptions": "FS",
        "ScanningSequence": "EP",
        "SequenceName": "*epfid2d1_64",
        "SequenceVariant": "SK",
        "SeriesDescription": "ep2d_bold_nonad_movie_1B",
        "SeriesNumber": 10,
        "SeriesTime": "135614.375000",
        "SliceLocation": -23.073908357237,
        "SliceThickness": 4.0,
        "SmallestImagePixelValue": 0,
        "SoftwareVersions": "syngo MR B17",
        "SpacingBetweenSlices": 3.9999989970541,
        "SpecificCharacterSet": "ISO_IR 100",
        "StudyID": "1",
        "StudyTime": "131250.484000",
        "TransmitCoilName": "Body",
        "VariableFlipAngleFlag": "N",
        "WindowCenterWidthExplanation": "Algo1",
        "dBdt": 0.0
      },
      "slices": {}
    },
    "modality": "bold",
    "subject_id": "CTS203",
    "task_id": "restmoviefixed",
    "time": {
      "samples": {
        "AcquisitionNumber": [
          1,
          2,
          3,
          4,
          5,
          6,
          7,
          8,
          9,
          10,
          11,
          12,
          13,
          14,
          15,
          16,
          17,
          18,
          19,
          20,
          21,
          22,
          23,
          24,
          25,
          26,
          27,
          28,
          29,
          30,
          31,
          32,
          33,
          34,
          35,
          36,
          37,
          38,
          39,
          40,
          41,
          42,
          43,
          44,
          45,
          46,
          47,
          48,
          49,
          50,
          51,
          52,
          53,
          54,
          55,
          56,
          57,
          58,
          59,
          60,
          61,
          62,
          63,
          64,
          65,
          66,
          67,
          68,
          69,
          70,
          71,
          72,
          73,
          74,
          75,
          76,
          77,
          78,
          79,
          80,
          81,
          82,
          83,
          84,
          85,
          86,
          87,
          88,
          89,
          90,
          91,
          92,
          93,
          94,
          95,
          96,
          97,
          98,
          99,
          100,
          101,
          102,
          103,
          104,
          105,
          106,
          107,
          108,
          109,
          110,
          111,
          112,
          113,
          114,
          115,
          116,
          117,
          118,
          119,
          120,
          121,
          122,
          123,
          124,
          125,
          126,
          127,
          128,
          129,
          130,
          131,
          132,
          133,
          134,
          135,
          136,
          137,
          138,
          139,
          140,
          141,
          142,
          143,
          144,
          145,
          146,
          147,
          148,
          149,
          150,
          151,
          152,
          153,
          154,
          155,
          156,
          157,
          158,
          159,
          160,
          161,
          162,
          163,
          164
        ],
        "AcquisitionTime": [
          "135612.020000",
          "135614.530000",
          "135617.040000",
          "135619.550000",
          "135622.060000",
          "135624.570000",
          "135627.080000",
          "135629.590000",
          "135632.100000",
          "135634.610000",
          "135637.120000",
          "135639.630000",
          "135642.140000",
          "135644.650000",
          "135647.160000",
          "135649.670000",
          "135652.180000",
          "135654.690000",
          "135657.200000",
          "135659.710000",
          "135702.220000",
          "135704.730000",
          "135707.240000",
          "135709.750000",
          "135712.260000",
          "135714.770000",
          "135717.280000",
          "135719.790000",
          "135722.300000",
          "135724.810000",
          "135727.320000",
          "135729.830000",
          "135732.340000",
          "135734.850000",
          "135737.360000",
          "135739.872500",
          "135742.382500",
          "135744.892500",
          "135747.402500",
          "135749.912500",
          "135752.422500",
          "135754.932500",
          "135757.442500",
          "135759.952500",
          "135802.462500",
          "135804.972500",
          "135807.482500",
          "135809.992500",
          "135812.502500",
          "135815.012500",
          "135817.522500",
          "135820.032500",
          "135822.542500",
          "135825.052500",
          "135827.562500",
          "135830.072500",
          "135832.582500",
          "135835.092500",
          "135837.602500",
          "135840.112500",
          "135842.622500",
          "135845.132500",
          "135847.642500",
          "135850.152500",
          "135852.662500",
          "135855.172500",
          "135857.682500",
          "135900.192500",
          "135902.702500",
          "135905.212500",
          "135907.722500",
          "135910.232500",
          "135912.742500",
          "135915.252500",
          "135917.762500",
          "135920.272500",
          "135922.782500",
          "135925.292500",
          "135927.802500",
          "135930.312500",
          "135932.822500",
          "135935.332500",
          "135937.842500",
          "135940.352500",
          "135942.862500",
          "135945.372500",
          "135947.882500",
          "135950.392500",
          "135952.902500",
          "135955.412500",
          "135957.922500",
          "140000.432500",
          "140002.942500",
          "140005.452500",
          "140007.962500",
          "140010.472500",
          "140012.982500",
          "140015.495000",
          "140018.005000",
          "140020.515000",
          "140023.025000",
          "140025.535000",
          "140028.045000",
          "140030.555000",
          "140033.065000",
          "140035.575000",
          "140038.085000",
          "140040.595000",
          "140043.105000",
          "140045.615000",
          "140048.125000",
          "140050.635000",
          "140053.145000",
          "140055.655000",
          "140058.165000",
          "140100.675000",
          "140103.185000",
          "140105.695000",
          "140108.205000",
          "140110.715000",
          "140113.225000",
          "140115.735000",
          "140118.245000",
          "140120.755000",
          "140123.265000",
          "140125.775000",
          "140128.285000",
          "140130.795000",
          "140133.305000",
          "140135.815000",
          "140138.325000",
          "140140.835000",
          "140143.345000",
          "140145.855000",
          "140148.365000",
          "140150.875000",
          "140153.385000",
          "140155.895000",
          "140158.405000",
          "140200.915000",
          "140203.425000",
          "140205.935000",
          "140208.445000",
          "140210.955000",
          "140213.465000",
          "140215.975000",
          "140218.485000",
          "140220.995000",
          "140223.505000",
          "140226.015000",
          "140228.525000",
          "140231.035000",
          "140233.545000",
          "140236.055000",
          "140238.565000",
          "140241.075000",
          "140243.585000",
          "140246.095000",
          "140248.605000",
          "140251.115000",
          "140253.627500",
          "140256.137500",
          "140258.647500",
          "140301.157500"
        ],
        "ContentTime": [
          "135614.375000",
          "135616.875000",
          "135619.375000",
          "135621.875000",
          "135624.375000",
          "135626.875000",
          "135629.375000",
          "135631.875000",
          "135634.375000",
          "135636.875000",
          "135639.375000",
          "135641.875000",
          "135644.375000",
          "135646.875000",
          "135649.375000",
          "135651.875000",
          "135654.375000",
          "135656.875000",
          "135659.375000",
          "135701.875000",
          "135704.375000",
          "135706.875000",
          "135709.375000",
          "135711.875000",
          "135714.375000",
          "135716.875000",
          "135719.375000",
          "135721.875000",
          "135724.375000",
          "135726.875000",
          "135729.375000",
          "135731.875000",
          "135734.375000",
          "135736.875000",
          "135739.375000",
          "135741.875000",
          "135744.375000",
          "135746.875000",
          "135749.375000",
          "135751.875000",
          "135754.375000",
          "135756.875000",
          "135759.375000",
          "135801.875000",
          "135804.375000",
          "135806.875000",
          "135809.375000",
          "135811.875000",
          "135814.375000",
          "135816.875000",
          "135819.375000",
          "135821.875000",
          "135824.375000",
          "135826.875000",
          "135829.375000",
          "135831.875000",
          "135834.375000",
          "135836.875000",
          "135839.375000",
          "135841.875000",
          "135844.375000",
          "135846.875000",
          "135849.375000",
          "135851.875000",
          "135854.375000",
          "135856.875000",
          "135859.375000",
          "135901.875000",
          "135904.375000",
          "135906.875000",
          "135909.375000",
          "135911.875000",
          "135914.375000",
          "135916.875000",
          "135919.375000",
          "135921.875000",
          "135924.375000",
          "135926.875000",
          "135929.375000",
          "135931.875000",
          "135934.375000",
          "135936.875000",
          "135939.375000",
          "135941.875000",
          "135944.375000",
          "135946.875000",
          "135949.375000",
          "135951.875000",
          "135954.375000",
          "135956.875000",
          "135959.375000",
          "140001.875000",
          "140004.375000",
          "140006.875000",
          "140009.375000",
          "140011.875000",
          "140014.375000",
          "140016.875000",
          "140019.375000",
          "140021.875000",
          "140024.375000",
          "140026.875000",
          "140029.375000",
          "140031.875000",
          "140034.375000",
          "140036.875000",
          "140039.375000",
          "140041.875000",
          "140044.375000",
          "140046.875000",
          "140049.375000",
          "140051.875000",
          "140054.375000",
          "140056.875000",
          "140059.375000",
          "140101.875000",
          "140104.375000",
          "140106.875000",
          "140109.375000",
          "140111.875000",
          "140114.375000",
          "140116.875000",
          "140119.375000",
          "140121.875000",
          "140124.375000",
          "140126.875000",
          "140129.375000",
          "140131.875000",
          "140134.375000",
          "140136.875000",
          "140139.375000",
          "140141.875000",
          "140144.375000",
          "140146.875000",
          "140149.375000",
          "140151.875000",
          "140154.375000",
          "140156.875000",
          "140159.375000",
          "140201.875000",
          "140204.375000",
          "140206.875000",
          "140209.375000",
          "140211.875000",
          "140214.375000",
          "140216.875000",
          "140219.375000",
          "140221.875000",
          "140224.375000",
          "140226.875000",
          "140229.375000",
          "140231.875000",
          "140234.375000",
          "140236.875000",
          "140239.375000",
          "140241.875000",
          "140244.375000",
          "140246.875000",
          "140249.375000",
          "140251.875000",
          "140254.375000",
          "140256.875000",
          "140259.375000",
          "140301.421000"
        ],
        "InstanceCreationTime": [
          "135614.375000",
          "135616.875000",
          "135619.375000",
          "135621.875000",
          "135624.375000",
          "135626.875000",
          "135629.375000",
          "135631.875000",
          "135634.375000",
          "135636.875000",
          "135639.375000",
          "135641.875000",
          "135644.375000",
          "135646.875000",
          "135649.375000",
          "135651.875000",
          "135654.375000",
          "135656.875000",
          "135659.375000",
          "135701.875000",
          "135704.375000",
          "135706.875000",
          "135709.375000",
          "135711.875000",
          "135714.375000",
          "135716.875000",
          "135719.375000",
          "135721.875000",
          "135724.375000",
          "135726.875000",
          "135729.375000",
          "135731.875000",
          "135734.375000",
          "135736.875000",
          "135739.375000",
          "135741.875000",
          "135744.375000",
          "135746.875000",
          "135749.375000",
          "135751.875000",
          "135754.375000",
          "135756.875000",
          "135759.375000",
          "135801.875000",
          "135804.375000",
          "135806.875000",
          "135809.375000",
          "135811.875000",
          "135814.375000",
          "135816.875000",
          "135819.375000",
          "135821.875000",
          "135824.375000",
          "135826.875000",
          "135829.375000",
          "135831.875000",
          "135834.375000",
          "135836.875000",
          "135839.375000",
          "135841.875000",
          "135844.375000",
          "135846.875000",
          "135849.375000",
          "135851.875000",
          "135854.375000",
          "135856.875000",
          "135859.375000",
          "135901.875000",
          "135904.375000",
          "135906.875000",
          "135909.375000",
          "135911.875000",
          "135914.375000",
          "135916.875000",
          "135919.375000",
          "135921.875000",
          "135924.375000",
          "135926.875000",
          "135929.375000",
          "135931.875000",
          "135934.375000",
          "135936.875000",
          "135939.375000",
          "135941.875000",
          "135944.375000",
          "135946.875000",
          "135949.375000",
          "135951.875000",
          "135954.375000",
          "135956.875000",
          "135959.375000",
          "140001.875000",
          "140004.375000",
          "140006.875000",
          "140009.375000",
          "140011.875000",
          "140014.375000",
          "140016.875000",
          "140019.375000",
          "140021.875000",
          "140024.375000",
          "140026.875000",
          "140029.375000",
          "140031.875000",
          "140034.375000",
          "140036.875000",
          "140039.375000",
          "140041.875000",
          "140044.375000",
          "140046.875000",
          "140049.375000",
          "140051.875000",
          "140054.375000",
          "140056.875000",
          "140059.375000",
          "140101.875000",
          "140104.375000",
          "140106.875000",
          "140109.375000",
          "140111.875000",
          "140114.375000",
          "140116.875000",
          "140119.375000",
          "140121.875000",
          "140124.375000",
          "140126.875000",
          "140129.375000",
          "140131.875000",
          "140134.375000",
          "140136.875000",
          "140139.375000",
          "140141.875000",
          "140144.375000",
          "140146.875000",
          "140149.375000",
          "140151.875000",
          "140154.375000",
          "140156.875000",
          "140159.375000",
          "140201.875000",
          "140204.375000",
          "140206.875000",
          "140209.375000",
          "140211.875000",
          "140214.375000",
          "140216.875000",
          "140219.375000",
          "140221.875000",
          "140224.375000",
          "140226.875000",
          "140229.375000",
          "140231.875000",
          "140234.375000",
          "140236.875000",
          "140239.375000",
          "140241.875000",
          "140244.375000",
          "140246.875000",
          "140249.375000",
          "140251.875000",
          "140254.375000",
          "140256.875000",
          "140259.375000",
          "140301.421000"
        ],
        "InstanceNumber": [
          1,
          2,
          3,
          4,
          5,
          6,
          7,
          8,
          9,
          10,
          11,
          12,
          13,
          14,
          15,
          16,
          17,
          18,
          19,
          20,
          21,
          22,
          23,
          24,
          25,
          26,
          27,
          28,
          29,
          30,
          31,
          32,
          33,
          34,
          35,
          36,
          37,
          38,
          39,
          40,
          41,
          42,
          43,
          44,
          45,
          46,
          47,
          48,
          49,
          50,
          51,
          52,
          53,
          54,
          55,
          56,
          57,
          58,
          59,
          60,
          61,
          62,
          63,
          64,
          65,
          66,
          67,
          68,
          69,
          70,
          71,
          72,
          73,
          74,
          75,
          76,
          77,
          78,
          79,
          80,
          81,
          82,
          83,
          84,
          85,
          86,
          87,
          88,
          89,
          90,
          91,
          92,
          93,
          94,
          95,
          96,
          97,
          98,
          99,
          100,
          101,
          102,
          103,
          104,
          105,
          106,
          107,
          108,
          109,
          110,
          111,
          112,
          113,
          114,
          115,
          116,
          117,
          118,
          119,
          120,
          121,
          122,
          123,
          124,
          125,
          126,
          127,
          128,
          129,
          130,
          131,
          132,
          133,
          134,
          135,
          136,
          137,
          138,
          139,
          140,
          141,
          142,
          143,
          144,
          145,
          146,
          147,
          148,
          149,
          150,
          151,
          152,
          153,
          154,
          155,
          156,
          157,
          158,
          159,
          160,
          161,
          162,
          163,
          164
        ],
        "LargestImagePixelValue": [
          1204,
          1132,
          972,
          1013,
          939,
          1024,
          1005,
          1059,
          990,
          978,
          1118,
          1021,
          1024,
          1084,
          1094,
          983,
          1045,
          1003,
          1087,
          1026,
          967,
          1059,
          1063,
          1064,
          1005,
          989,
          1125,
          973,
          1022,
          977,
          957,
          1005,
          1030,
          1093,
          1008,
          1089,
          970,
          1007,
          971,
          1027,
          1066,
          970,
          1017,
          969,
          991,
          1183,
          973,
          979,
          1032,
          974,
          1057,
          970,
          1039,
          1043,
          1092,
          1007,
          948,
          964,
          1020,
          971,
          1131,
          944,
          960,
          993,
          950,
          971,
          991,
          1171,
          1059,
          961,
          1085,
          1037,
          1031,
          1112,
          1026,
          1045,
          1023,
          986,
          1081,
          1062,
          985,
          1037,
          1010,
          972,
          971,
          1059,
          1041,
          1035,
          966,
          1006,
          1046,
          1133,
          1113,
          1124,
          1005,
          968,
          1011,
          1078,
          1024,
          1006,
          966,
          970,
          1081,
          1025,
          1096,
          1029,
          1033,
          952,
          1080,
          1092,
          1114,
          1165,
          1043,
          955,
          1057,
          994,
          1166,
          1020,
          1001,
          1191,
          1075,
          1072,
          997,
          1132,
          968,
          995,
          1130,
          1174,
          1083,
          1062,
          977,
          1143,
          1021,
          986,
          1059,
          961,
          965,
          1123,
          998,
          983,
          1033,
          1019,
          955,
          1006,
          965,
          958,
          1094,
          1016,
          959,
          1097,
          1095,
          1086,
          1078,
          1115,
          958,
          969,
          913,
          1024,
          1113,
          944,
          972,
          974,
          968,
          1097
        ],
        "WindowCenter": [
          507.0,
          506.0,
          506.0,
          506.0,
          506.0,
          507.0,
          505.0,
          506.0,
          506.0,
          505.0,
          505.0,
          505.0,
          506.0,
          505.0,
          505.0,
          505.0,
          506.0,
          505.0,
          506.0,
          505.0,
          504.0,
          506.0,
          506.0,
          505.0,
          505.0,
          505.0,
          505.0,
          504.0,
          505.0,
          504.0,
          505.0,
          505.0,
          506.0,
          506.0,
          505.0,
          505.0,
          505.0,
          505.0,
          506.0,
          505.0,
          505.0,
          505.0,
          505.0,
          506.0,
          505.0,
          506.0,
          504.0,
          505.0,
          505.0,
          505.0,
          505.0,
          504.0,
          505.0,
          504.0,
          505.0,
          505.0,
          505.0,
          505.0,
          506.0,
          505.0,
          506.0,
          504.0,
          505.0,
          506.0,
          505.0,
          505.0,
          504.0,
          506.0,
          504.0,
          504.0,
          506.0,
          505.0,
          506.0,
          506.0,
          504.0,
          505.0,
          504.0,
          504.0,
          507.0,
          506.0,
          505.0,
          505.0,
          505.0,
          504.0,
          504.0,
          506.0,
          505.0,
          505.0,
          504.0,
          505.0,
          505.0,
          506.0,
          506.0,
          506.0,
          505.0,
          504.0,
          504.0,
          505.0,
          505.0,
          505.0,
          505.0,
          506.0,
          505.0,
          506.0,
          507.0,
          507.0,
          506.0,
          505.0,
          506.0,
          506.0,
          506.0,
          506.0,
          505.0,
          505.0,
          508.0,
          505.0,
          507.0,
          507.0,
          505.0,
          506.0,
          506.0,
          506.0,
          505.0,
          506.0,
          505.0,
          505.0,
          507.0,
          507.0,
          506.0,
          505.0,
          506.0,
          506.0,
          507.0,
          506.0,
          506.0,
          506.0,
          507.0,
          507.0,
          506.0,
          505.0,
          506.0,
          506.0,
          506.0,
          505.0,
          505.0,
          505.0,
          507.0,
          507.0,
          506.0,
          506.0,
          505.0,
          506.0,
