{
  "aor": 0.04095853658536586,
  "aqi": 0.08422208597560975,
  "bids_meta": {
    "AcquisitionMatrixPE": 64,
    "AcquisitionNumber": 1,
    "AcquisitionTime": "14:14:47.805000",
    "BandwidthPerPixelPhaseEncode": 26.483,
    "BaseResolution": 64,
    "BodyPartExamined": "HEAD",
    "CogAtlasID": "TODO",
    "ConversionSoftware": "dcm2niix",
    "ConversionSoftwareVersion": "v1.0.20171017 GCC6.3.0",
    "DerivedVendorReportedEchoSpacing": 0.000590001,
    "DeviceSerialNumber": "35177",
    "DwellTime": 4.1e-06,
    "EchoTime": 0.027,
    "EffectiveEchoSpacing": 0.000590001,
    "FlipAngle": 90,
    "ImageOrientationPatientDICOM": [
      0.996669,
      -0.0739048,
      -0.0344785,
      0.0789568,
      0.980276,
      0.181174
    ],
    "ImageType": [
      "ORIGINAL",
      "PRIMARY",
      "M",
      "ND",
      "NORM",
      "MOSAIC"
    ],
    "InPlanePhaseEncodingDirectionDICOM": "COL",
    "InstitutionAddress": "Scott_Ave._4525_St._Louis_MO_US_63110",
    "InstitutionName": "Washington_University",
    "InstitutionalDepartmentName": "Department",
    "MRAcquisitionType": "2D",
    "MagneticFieldStrength": 3,
    "Manufacturer": "Siemens",
    "ManufacturersModelName": "TrioTim",
    "Modality": "MR",
    "PartialFourier": 1,
    "PatientPosition": "HFS",
    "PercentPhaseFOV": 100,
    "PhaseEncodingDirection": "j-",
    "PhaseEncodingSteps": 64,
    "PhaseResolution": 1,
    "PixelBandwidth": 1905,
    "ProcedureStepDescription": "head_GREENE",
    "ProtocolName": "ep2d_bold_movie_rest2A(correct)",
    "PulseSequenceDetails": "%SiemensSeq%_ep2d_bold",
    "ReceiveCoilName": "HeadMatrix",
    "ReconMatrixPE": 64,
    "RepetitionTime": 2.5,
    "SAR": 0.162988,
    "ScanOptions": "FS",
    "ScanningSequence": "EP",
    "SequenceName": "_epfid2d1_64",
    "SequenceVariant": "SK",
    "SeriesDescription": "ep2d_bold_movie_rest2A(correct)",
    "SeriesNumber": 12,
    "ShimSetting": [
      -224,
      -19688,
      7998,
      280,
      88,
      -552,
      173,
      -28
    ],
    "SliceThickness": 4,
    "SliceTiming": [
      1.255,
      0,
      1.3325,
      0.0775,
      1.4125,
      0.1575,
      1.49,
      0.235,
      1.5675,
      0.315,
      1.6475,
      0.3925,
      1.725,
      0.47,
      1.805,
      0.55,
      1.8825,
      0.6275,
      1.96,
      0.705,
      2.04,
      0.785,
      2.1175,
      0.8625,
      2.195,
      0.9425,
      2.275,
      1.02,
      2.3525,
      1.0975,
      2.4325,
      1.1775
    ],
    "SoftwareVersions": "syngo_MR_B17",
    "SpacingBetweenSlices": 4,
    "StationName": "MRC35177",
    "TaskName": "restmovienofeedback",
    "TotalReadoutTime": 0.0371701,
    "TxRefAmp": 341.225,
    "dataset": "ds000256",
    "dcmmeta_affine": [
      [
        -3.9866764545440674,
        0.31582707166671753,
        -0.08163540810346603,
        118.20265197753906
      ],
      [
        0.29561930894851685,
        3.9211056232452393,
        0.7331712245941162,
        -140.41819763183594
      ],
      [
        -0.13791412115097046,
        -0.7246960401535034,
        3.931385040283203,
        10.56230640411377
      ],
      [
        0.0,
        0.0,
        0.0,
        1.0
      ]
    ],
    "dcmmeta_reorient_transform": [
      [
        0.0,
        -1.0,
        0.0,
        63.0
      ],
      [
        1.0,
        0.0,
        0.0,
        0.0
      ],
      [
        0.0,
        0.0,
        1.0,
        0.0
      ],
      [
        0.0,
        0.0,
        0.0,
        1.0
      ]
    ],
    "dcmmeta_shape": [
      64,
      64,
      32,
      164
    ],
    "dcmmeta_slice_dim": 2,
    "dcmmeta_version": 0.6,
    "global": {
      "const": {
        "AccessionNumber": ".",
        "AcquisitionMatrix": [
          64,
          0,
          0,
          64
        ],
        "AngioFlag": "N",
        "BitsAllocated": 16,
        "BitsStored": 12,
        "BodyPartExamined": "HEAD",
        "Columns": 384,
        "DeidentificationMethodCodeSequence": [
          {
            "CodeMeaning": "XNAT Edit Script",
            "CodeValue": "625500",
            "CodingSchemeDesignator": "XNAT",
            "CodingSchemeVersion": "0.1"
          }
        ],
        "EchoNumbers": 1,
        "EchoTime": 27.0,
        "EchoTrainLength": 1,
        "FlipAngle": 90.0,
        "HighBit": 11,
        "ImageOrientationPatient": [
          0.99666910604185,
          -0.0739048300583,
          -0.0344785318101,
          0.07895677074451,
          0.98027639270777,
          0.18117401097688
        ],
        "ImagePositionPatient": [
          -826.50031561174,
          -686.68925397464,
          -128.97865059835
        ],
        "ImageType": [
          "ORIGINAL",
          "PRIMARY",
          "M",
          "ND",
          "NORM",
          "MOSAIC"
        ],
        "ImagedNucleus": "1H",
        "ImagingFrequency": 123.255751,
        "InPlanePhaseEncodingDirection": "COL",
        "MRAcquisitionType": "2D",
        "MagneticFieldStrength": 3.0,
        "Manufacturer": "SIEMENS",
        "ManufacturerModelName": "TrioTim",
        "Modality": "MR",
        "NumberOfAverages": 1.0,
        "NumberOfPhaseEncodingSteps": 64,
        "PercentPhaseFieldOfView": 100.0,
        "PercentSampling": 100.0,
        "PerformedProcedureStepStartTime": "131250.515000",
        "PhotometricInterpretation": "MONOCHROME2",
        "PixelBandwidth": 1905.0,
        "PixelRepresentation": 0,
        "PixelSpacing": [
          4.0,
          4.0
        ],
        "PositionReferenceIndicator": "",
        "ProtocolName": "ep2d_bold_movie_rest2A(correct)",
        "RepetitionTime": 2500.0,
        "Rows": 384,
        "SAR": 0.16298810237477,
        "SamplesPerPixel": 1,
        "ScanOptions": "FS",
        "ScanningSequence": "EP",
        "SequenceName": "*epfid2d1_64",
        "SequenceVariant": "SK",
        "SeriesDescription": "ep2d_bold_movie_rest2A(correct)",
        "SeriesNumber": 12,
        "SeriesTime": "141449.890000",
        "SliceLocation": -17.768906709248,
        "SliceThickness": 4.0,
        "SmallestImagePixelValue": 0,
        "SoftwareVersions": "syngo MR B17",
        "SpacingBetweenSlices": 3.9999990295873,
        "SpecificCharacterSet": "ISO_IR 100",
        "StudyID": "1",
        "StudyTime": "131250.484000",
        "TransmitCoilName": "Body",
        "VariableFlipAngleFlag": "N",
        "WindowCenterWidthExplanation": "Algo1",
        "dBdt": 0.0
      },
      "slices": {}
    },
    "modality": "bold",
    "subject_id": "CTS203",
    "task_id": "restmovienofeedback",
    "time": {
      "samples": {
        "AcquisitionNumber": [
          1,
          2,
          3,
          4,
          5,
          6,
          7,
          8,
          9,
          10,
          11,
          12,
          13,
          14,
          15,
          16,
          17,
          18,
          19,
          20,
          21,
          22,
          23,
          24,
          25,
          26,
          27,
          28,
          29,
          30,
          31,
          32,
          33,
          34,
          35,
          36,
          37,
          38,
          39,
          40,
          41,
          42,
          43,
          44,
          45,
          46,
          47,
          48,
          49,
          50,
          51,
          52,
          53,
          54,
          55,
          56,
          57,
          58,
          59,
          60,
          61,
          62,
          63,
          64,
          65,
          66,
          67,
          68,
          69,
          70,
          71,
          72,
          73,
          74,
          75,
          76,
          77,
          78,
          79,
          80,
          81,
          82,
          83,
          84,
          85,
          86,
          87,
          88,
          89,
          90,
          91,
          92,
          93,
          94,
          95,
          96,
          97,
          98,
          99,
          100,
          101,
          102,
          103,
          104,
          105,
          106,
          107,
          108,
          109,
          110,
          111,
          112,
          113,
          114,
          115,
          116,
          117,
          118,
          119,
          120,
          121,
          122,
          123,
          124,
          125,
          126,
          127,
          128,
          129,
          130,
          131,
          132,
          133,
          134,
          135,
          136,
          137,
          138,
          139,
          140,
          141,
          142,
          143,
          144,
          145,
          146,
          147,
          148,
          149,
          150,
          151,
          152,
          153,
          154,
          155,
          156,
          157,
          158,
          159,
          160,
          161,
          162,
          163,
          164
        ],
        "AcquisitionTime": [
          "141447.805000",
          "141450.315000",
          "141452.825000",
          "141455.335000",
          "141457.845000",
          "141500.355000",
          "141502.865000",
          "141505.375000",
          "141507.885000",
          "141510.395000",
          "141512.905000",
          "141515.415000",
          "141517.925000",
          "141520.435000",
          "141522.945000",
          "141525.455000",
          "141527.965000",
          "141530.475000",
          "141532.985000",
          "141535.495000",
          "141538.005000",
          "141540.515000",
          "141543.025000",
          "141545.535000",
          "141548.045000",
          "141550.555000",
          "141553.065000",
          "141555.575000",
          "141558.085000",
          "141600.595000",
          "141603.105000",
          "141605.617500",
          "141608.127500",
          "141610.637500",
          "141613.147500",
          "141615.657500",
          "141618.167500",
          "141620.677500",
          "141623.187500",
          "141625.697500",
          "141628.207500",
          "141630.717500",
          "141633.227500",
          "141635.737500",
          "141638.247500",
          "141640.757500",
          "141643.267500",
          "141645.777500",
          "141648.287500",
          "141650.797500",
          "141653.307500",
          "141655.817500",
          "141658.327500",
          "141700.837500",
          "141703.347500",
          "141705.857500",
          "141708.367500",
          "141710.877500",
          "141713.387500",
          "141715.897500",
          "141718.407500",
          "141720.917500",
          "141723.427500",
          "141725.937500",
          "141728.447500",
          "141730.957500",
          "141733.467500",
          "141735.977500",
          "141738.487500",
          "141740.997500",
          "141743.507500",
          "141746.017500",
          "141748.527500",
          "141751.037500",
          "141753.547500",
          "141756.057500",
          "141758.567500",
          "141801.077500",
          "141803.587500",
          "141806.097500",
          "141808.607500",
          "141811.117500",
          "141813.627500",
          "141816.137500",
          "141818.647500",
          "141821.157500",
          "141823.667500",
          "141826.177500",
          "141828.687500",
          "141831.197500",
          "141833.707500",
          "141836.217500",
          "141838.727500",
          "141841.240000",
          "141843.750000",
          "141846.260000",
          "141848.770000",
          "141851.280000",
          "141853.790000",
          "141856.300000",
          "141858.810000",
          "141901.320000",
          "141903.830000",
          "141906.340000",
          "141908.850000",
          "141911.360000",
          "141913.870000",
          "141916.380000",
          "141918.890000",
          "141921.400000",
          "141923.910000",
          "141926.420000",
          "141928.930000",
          "141931.440000",
          "141933.950000",
          "141936.460000",
          "141938.970000",
          "141941.480000",
          "141943.990000",
          "141946.500000",
          "141949.010000",
          "141951.520000",
          "141954.030000",
          "141956.540000",
          "141959.050000",
          "142001.560000",
          "142004.070000",
          "142006.580000",
          "142009.090000",
          "142011.600000",
          "142014.110000",
          "142016.620000",
          "142019.130000",
          "142021.640000",
          "142024.150000",
          "142026.660000",
          "142029.170000",
          "142031.680000",
          "142034.190000",
          "142036.700000",
          "142039.210000",
          "142041.720000",
          "142044.230000",
          "142046.740000",
          "142049.250000",
          "142051.760000",
          "142054.270000",
          "142056.780000",
          "142059.290000",
          "142101.800000",
          "142104.310000",
          "142106.820000",
          "142109.330000",
          "142111.840000",
          "142114.350000",
          "142116.862500",
          "142119.372500",
          "142121.882500",
          "142124.392500",
          "142126.902500",
          "142129.412500",
          "142131.922500",
          "142134.432500",
          "142136.942500"
        ],
        "ContentTime": [
          "141449.890000",
          "141452.390000",
          "141454.890000",
          "141457.390000",
          "141459.890000",
          "141502.390000",
          "141504.890000",
          "141507.390000",
          "141509.890000",
          "141512.390000",
          "141514.890000",
          "141517.390000",
          "141519.890000",
          "141522.390000",
          "141524.890000",
          "141527.390000",
          "141529.890000",
          "141532.390000",
          "141534.890000",
          "141537.390000",
          "141539.890000",
          "141542.390000",
          "141544.890000",
          "141547.390000",
          "141549.890000",
          "141552.390000",
          "141554.890000",
          "141557.390000",
          "141559.890000",
          "141602.390000",
          "141604.890000",
          "141607.390000",
          "141609.890000",
          "141612.390000",
          "141614.890000",
          "141617.390000",
          "141619.890000",
          "141622.390000",
          "141624.890000",
          "141627.390000",
          "141629.890000",
          "141632.390000",
          "141634.890000",
          "141637.390000",
          "141639.890000",
          "141642.390000",
          "141644.890000",
          "141647.390000",
          "141649.890000",
          "141652.390000",
          "141654.890000",
          "141657.390000",
          "141659.890000",
          "141702.390000",
          "141704.890000",
          "141707.390000",
          "141709.890000",
          "141712.390000",
          "141714.890000",
          "141717.390000",
          "141719.890000",
          "141722.390000",
          "141724.890000",
          "141727.390000",
          "141729.890000",
          "141732.390000",
          "141734.890000",
          "141737.390000",
          "141739.890000",
          "141742.390000",
          "141744.890000",
          "141747.390000",
          "141749.890000",
          "141752.390000",
          "141754.890000",
          "141757.390000",
          "141759.890000",
          "141802.390000",
          "141804.890000",
          "141807.390000",
          "141809.890000",
          "141812.390000",
          "141814.890000",
          "141817.390000",
          "141819.890000",
          "141822.390000",
          "141824.890000",
          "141827.390000",
          "141829.890000",
          "141832.390000",
          "141834.890000",
          "141837.390000",
          "141839.890000",
          "141842.390000",
          "141844.890000",
          "141847.390000",
          "141849.890000",
          "141852.390000",
          "141854.890000",
          "141857.390000",
          "141859.890000",
          "141902.390000",
          "141904.890000",
          "141907.390000",
          "141909.890000",
          "141912.390000",
          "141914.890000",
          "141917.390000",
          "141919.890000",
          "141922.390000",
          "141924.890000",
          "141927.390000",
          "141929.890000",
          "141932.390000",
          "141934.890000",
          "141937.390000",
          "141939.890000",
          "141942.390000",
          "141944.890000",
          "141947.390000",
          "141949.890000",
          "141952.390000",
          "141954.890000",
          "141957.390000",
          "141959.890000",
          "142002.390000",
          "142004.890000",
          "142007.390000",
          "142009.890000",
          "142012.390000",
          "142014.890000",
          "142017.390000",
          "142019.890000",
          "142022.390000",
          "142024.890000",
          "142027.390000",
          "142029.890000",
          "142032.390000",
          "142034.890000",
          "142037.390000",
          "142039.890000",
          "142042.390000",
          "142044.890000",
          "142047.390000",
          "142049.890000",
          "142052.390000",
          "142054.890000",
          "142057.390000",
          "142059.890000",
          "142102.390000",
          "142104.890000",
          "142107.390000",
          "142109.890000",
          "142112.390000",
          "142114.890000",
          "142117.390000",
          "142119.890000",
          "142122.390000",
          "142124.890000",
          "142127.390000",
          "142129.890000",
          "142132.390000",
          "142134.890000",
          "142137.250000"
        ],
        "InstanceCreationTime": [
          "141449.890000",
          "141452.390000",
          "141454.890000",
          "141457.390000",
          "141459.890000",
          "141502.390000",
          "141504.890000",
          "141507.390000",
          "141509.890000",
          "141512.390000",
          "141514.890000",
          "141517.390000",
          "141519.890000",
          "141522.390000",
          "141524.890000",
          "141527.390000",
          "141529.890000",
          "141532.390000",
          "141534.890000",
          "141537.390000",
          "141539.890000",
          "141542.390000",
          "141544.890000",
          "141547.390000",
          "141549.890000",
          "141552.390000",
          "141554.890000",
          "141557.390000",
          "141559.890000",
          "141602.390000",
          "141604.890000",
          "141607.390000",
          "141609.890000",
          "141612.390000",
          "141614.890000",
          "141617.390000",
          "141619.890000",
          "141622.390000",
          "141624.890000",
          "141627.390000",
          "141629.890000",
          "141632.390000",
          "141634.890000",
          "141637.390000",
          "141639.890000",
          "141642.390000",
          "141644.890000",
          "141647.390000",
          "141649.890000",
          "141652.390000",
          "141654.890000",
          "141657.390000",
          "141659.890000",
          "141702.390000",
          "141704.890000",
          "141707.390000",
          "141709.890000",
          "141712.390000",
          "141714.890000",
          "141717.390000",
          "141719.890000",
          "141722.390000",
          "141724.890000",
          "141727.390000",
          "141729.890000",
          "141732.390000",
          "141734.890000",
          "141737.390000",
          "141739.890000",
          "141742.390000",
          "141744.890000",
          "141747.390000",
          "141749.890000",
          "141752.390000",
          "141754.890000",
          "141757.390000",
          "141759.890000",
          "141802.390000",
          "141804.890000",
          "141807.390000",
          "141809.890000",
          "141812.390000",
          "141814.890000",
          "141817.390000",
          "141819.890000",
          "141822.390000",
          "141824.890000",
          "141827.390000",
          "141829.890000",
          "141832.390000",
          "141834.890000",
          "141837.390000",
          "141839.890000",
          "141842.390000",
          "141844.890000",
          "141847.390000",
          "141849.890000",
          "141852.390000",
          "141854.890000",
          "141857.390000",
          "141859.890000",
          "141902.390000",
          "141904.890000",
          "141907.390000",
          "141909.890000",
          "141912.390000",
          "141914.890000",
          "141917.390000",
          "141919.890000",
          "141922.390000",
          "141924.890000",
          "141927.390000",
          "141929.890000",
          "141932.390000",
          "141934.890000",
          "141937.390000",
          "141939.890000",
          "141942.390000",
          "141944.890000",
          "141947.390000",
          "141949.890000",
          "141952.390000",
          "141954.890000",
          "141957.390000",
          "141959.890000",
          "142002.390000",
          "142004.890000",
          "142007.390000",
          "142009.890000",
          "142012.390000",
          "142014.890000",
          "142017.390000",
          "142019.890000",
          "142022.390000",
          "142024.890000",
          "142027.390000",
          "142029.890000",
          "142032.390000",
          "142034.890000",
          "142037.390000",
          "142039.890000",
          "142042.390000",
          "142044.890000",
          "142047.390000",
          "142049.890000",
          "142052.390000",
          "142054.890000",
          "142057.390000",
          "142059.890000",
          "142102.390000",
          "142104.890000",
          "142107.390000",
          "142109.890000",
          "142112.390000",
          "142114.890000",
          "142117.390000",
          "142119.890000",
          "142122.390000",
          "142124.890000",
          "142127.390000",
          "142129.890000",
          "142132.390000",
          "142134.890000",
          "142137.250000"
        ],
        "InstanceNumber": [
          1,
          2,
          3,
          4,
          5,
          6,
          7,
          8,
          9,
          10,
          11,
          12,
          13,
          14,
          15,
          16,
          17,
          18,
          19,
          20,
          21,
          22,
          23,
          24,
          25,
          26,
          27,
          28,
          29,
          30,
          31,
          32,
          33,
          34,
          35,
          36,
          37,
          38,
          39,
          40,
          41,
          42,
          43,
          44,
          45,
          46,
          47,
          48,
          49,
          50,
          51,
          52,
          53,
          54,
          55,
          56,
          57,
          58,
          59,
          60,
          61,
          62,
          63,
          64,
          65,
          66,
          67,
          68,
          69,
          70,
          71,
          72,
          73,
          74,
          75,
          76,
          77,
          78,
          79,
          80,
          81,
          82,
          83,
          84,
          85,
          86,
          87,
          88,
          89,
          90,
          91,
          92,
          93,
          94,
          95,
          96,
          97,
          98,
          99,
          100,
          101,
          102,
          103,
          104,
          105,
          106,
          107,
          108,
          109,
          110,
          111,
          112,
          113,
          114,
          115,
          116,
          117,
          118,
          119,
          120,
          121,
          122,
          123,
          124,
          125,
          126,
          127,
          128,
          129,
          130,
          131,
          132,
          133,
          134,
          135,
          136,
          137,
          138,
          139,
          140,
          141,
          142,
          143,
          144,
          145,
          146,
          147,
          148,
          149,
          150,
          151,
          152,
          153,
          154,
          155,
          156,
          157,
          158,
          159,
          160,
          161,
          162,
          163,
          164
        ],
        "LargestImagePixelValue": [
          1103,
          1025,
          1120,
          975,
          965,
          979,
          980,
          971,
          978,
          974,
          984,
          997,
          973,
          987,
          1021,
          983,
          1010,
          965,
          970,
          979,
          974,
          982,
          1020,
          1033,
          985,
          979,
          974,
          979,
          983,
          978,
          1020,
          1093,
          1132,
          1030,
          943,
          971,
          1196,
          1006,
          989,
          956,
          1225,
          987,
          979,
          1075,
          1012,
          1235,
          1247,
          1074,
          1109,
          973,
          992,
          970,
          979,
          1217,
          1105,
          1088,
          967,
          970,
          1209,
          1120,
          945,
          996,
          1086,
          1061,
          1085,
          1100,
          1097,
          965,
          978,
          1071,
          1118,
          984,
          982,
          976,
          1033,
          917,
          987,
          915,
          961,
          859,
          1101,
          933,
          954,
          1003,
          1031,
          957,
          958,
          986,
          1065,
          976,
          968,
          971,
          970,
          1049,
          1031,
          980,
          978,
          985,
          966,
          967,
          1022,
          1029,
          959,
          992,
          1022,
          961,
          1065,
          998,
          958,
          1089,
          970,
          1049,
          967,
          966,
          958,
          965,
          976,
          980,
          983,
          952,
          966,
          978,
          979,
          978,
          966,
          964,
          1063,
          957,
          960,
          1122,
          970,
          935,
          961,
          937,
          945,
          1039,
          985,
          1035,
          1334,
          997,
          1009,
          1067,
          1046,
          1075,
          957,
          1029,
          986,
          917,
          986,
          1139,
          1011,
          969,
          923,
          1046,
          1103,
          1055,
          996,
          1039,
          980,
          1027,
          948,
          999,
          1007,
          996
        ],
        "WindowCenter": [
          510.0,
          506.0,
          495.0,
          503.0,
          507.0,
          490.0,
          509.0,
          505.0,
          507.0,
          508.0,
          508.0,
          507.0,
          507.0,
          508.0,
          508.0,
          507.0,
          507.0,
          506.0,
          507.0,
          508.0,
          508.0,
          505.0,
          509.0,
          507.0,
          507.0,
          507.0,
          506.0,
          507.0,
          508.0,
          508.0,
          508.0,
          507.0,
          495.0,
          501.0,
          486.0,
          514.0,
          508.0,
          509.0,
          508.0,
          509.0,
          494.0,
          488.0,
          484.0,
          514.0,
          506.0,
          509.0,
          508.0,
          508.0,
          513.0,
          514.0,
          515.0,
          509.0,
          505.0,
          510.0,
          509.0,
          509.0,
          505.0,
          509.0,
          509.0,
          508.0,
          508.0,
          508.0,
          507.0,
          508.0,
          509.0,
          510.0,
          510.0,
          509.0,
          509.0,
          508.0,
          509.0,
          508.0,
          504.0,
          507.0,
          471.0,
          486.0,
          491.0,
          476.0,
          495.0,
          465.0,
          510.0,
          499.0,
          501.0,
          498.0,
          505.0,
          501.0,
          501.0,
          502.0,
          502.0,
          501.0,
          501.0,
          502.0,
          503.0,
          505.0,
          503.0,
          504.0,
          504.0,
          503.0,
          501.0,
          502.0,
          504.0,
          503.0,
          504.0,
          502.0,
          502.0,
          501.0,
          503.0,
          505.0,
          504.0,
          504.0,
          503.0,
          502.0,
          501.0,
          503.0,
          502.0,
          502.0,
          503.0,
          501.0,
          501.0,
          502.0,
          503.0,
          504.0,
          503.0,
          502.0,
          502.0,
          503.0,
          503.0,
          503.0,
          503.0,
          504.0,
          502.0,
          499.0,
          499.0,
          506.0,
          504.0,
          498.0,
          500.0,
          485.0,
          487.0,
          474.0,
          504.0,
          509.0,
          497.0,
          498.0,
          506.0,
          509.0,
          508.0,
          509.0,
          492.0,
          509.0,
          508.0,
          506.0,
