{
  "aor": 0.005721951219512196,
  "aqi": 0.007473208170731708,
  "bids_meta": {
    "AcquisitionMatrixPE": 64,
    "AcquisitionNumber": 1,
    "AcquisitionTime": "10:06:32.977500",
    "BandwidthPerPixelPhaseEncode": 26.483,
    "BaseResolution": 64,
    "BodyPartExamined": "HEAD",
    "CogAtlasID": "TODO",
    "ConversionSoftware": "dcm2niix",
    "ConversionSoftwareVersion": "v1.0.20171017 GCC6.3.0",
    "DerivedVendorReportedEchoSpacing": 0.000590001,
    "DeviceSerialNumber": "35177",
    "DwellTime": 4.1e-06,
    "EchoTime": 0.027,
    "EffectiveEchoSpacing": 0.000590001,
    "FlipAngle": 90,
    "ImageOrientationPatientDICOM": [
      0.999462,
      -0.000624351,
      -0.0327962,
      0.00397798,
      0.994747,
      0.102292
    ],
    "ImageType": [
      "ORIGINAL",
      "PRIMARY",
      "M",
      "ND",
      "NORM",
      "MOSAIC"
    ],
    "InPlanePhaseEncodingDirectionDICOM": "COL",
    "InstitutionAddress": "Scott_Ave._4525_St._Louis_MO_US_63110",
    "InstitutionName": "Washington_University",
    "InstitutionalDepartmentName": "Department",
    "MRAcquisitionType": "2D",
    "MagneticFieldStrength": 3,
    "Manufacturer": "Siemens",
    "ManufacturersModelName": "TrioTim",
    "Modality": "MR",
    "PartialFourier": 1,
    "PatientPosition": "HFS",
    "PercentPhaseFOV": 100,
    "PhaseEncodingDirection": "j-",
    "PhaseEncodingSteps": 64,
    "PhaseResolution": 1,
    "PixelBandwidth": 1905,
    "ProcedureStepDescription": "head_GREENE",
    "ProtocolName": "ep2d_bold_ad_movie_3A",
    "PulseSequenceDetails": "%SiemensSeq%_ep2d_bold",
    "ReceiveCoilName": "HeadMatrix",
    "ReconMatrixPE": 64,
    "RepetitionTime": 2.5,
    "SAR": 0.139755,
    "ScanOptions": "FS",
    "ScanningSequence": "EP",
    "SequenceName": "_epfid2d1_64",
    "SequenceVariant": "SK",
    "SeriesDescription": "ep2d_bold_ad_movie_3A",
    "SeriesNumber": 8,
    "ShimSetting": [
      -250,
      -19654,
      7962,
      97,
      61,
      -423,
      -82,
      127
    ],
    "SliceThickness": 4,
    "SliceTiming": [
      1.2525,
      0,
      1.3325,
      0.0775,
      1.41,
      0.155,
      1.49,
      0.235,
      1.5675,
      0.3125,
      1.645,
      0.39,
      1.725,
      0.47,
      1.8025,
      0.5475,
      1.88,
      0.625,
      1.96,
      0.705,
      2.0375,
      0.7825,
      2.115,
      0.8625,
      2.195,
      0.94,
      2.2725,
      1.0175,
      2.3525,
      1.0975,
      2.43,
      1.175
    ],
    "SoftwareVersions": "syngo_MR_B17",
    "SpacingBetweenSlices": 4,
    "StationName": "MRC35177",
    "TaskName": "restmovieadaptive",
    "TotalReadoutTime": 0.0371701,
    "TxRefAmp": 318.717,
    "dataset": "ds000256",
    "dcmmeta_affine": [
      [
        -3.997847557067871,
        0.01591193862259388,
        -0.13024021685123444,
        126.95643615722656
      ],
      [
        0.0024974020197987556,
        3.9789860248565674,
        0.40946781635284424,
        -128.20947265625
      ],
      [
        -0.13118481636047363,
        -0.4091660678386688,
        3.976855754852295,
        0.2603847086429596
      ],
      [
        0.0,
        0.0,
        0.0,
        1.0
      ]
    ],
    "dcmmeta_reorient_transform": [
      [
        0.0,
        -1.0,
        0.0,
        63.0
      ],
      [
        1.0,
        0.0,
        0.0,
        0.0
      ],
      [
        0.0,
        0.0,
        1.0,
        0.0
      ],
      [
        0.0,
        0.0,
        0.0,
        1.0
      ]
    ],
    "dcmmeta_shape": [
      64,
      64,
      32,
      164
    ],
    "dcmmeta_slice_dim": 2,
    "dcmmeta_version": 0.6,
    "global": {
      "const": {
        "AccessionNumber": ".",
        "AcquisitionMatrix": [
          64,
          0,
          0,
          64
        ],
        "AngioFlag": "N",
        "BitsAllocated": 16,
        "BitsStored": 12,
        "BodyPartExamined": "HEAD",
        "Columns": 384,
        "DeidentificationMethodCodeSequence": [
          {
            "CodeMeaning": "XNAT Edit Script",
            "CodeValue": "625500",
            "CodingSchemeDesignator": "XNAT",
            "CodingSchemeVersion": "0.1"
          }
        ],
        "EchoNumbers": 1,
        "EchoTime": 27.0,
        "EchoTrainLength": 1,
        "FlipAngle": 90.0,
        "HighBit": 11,
        "ImageOrientationPatient": [
          0.99946186474609,
          -0.000624350529,
          -0.0327962056446,
          0.00397798474441,
          0.99474651129368,
          0.1022915143422
        ],
        "ImagePositionPatient": [
          -770.16039575306,
          -758.70483697295,
          -69.994074478437
        ],
        "ImageType": [
          "ORIGINAL",
          "PRIMARY",
          "M",
          "ND",
          "NORM",
          "MOSAIC"
        ],
        "ImagedNucleus": "1H",
        "ImagingFrequency": 123.255932,
        "InPlanePhaseEncodingDirection": "COL",
        "MRAcquisitionType": "2D",
        "MagneticFieldStrength": 3.0,
        "Manufacturer": "SIEMENS",
        "ManufacturerModelName": "TrioTim",
        "Modality": "MR",
        "NumberOfAverages": 1.0,
        "NumberOfPhaseEncodingSteps": 64,
        "PercentPhaseFieldOfView": 100.0,
        "PercentSampling": 100.0,
        "PerformedProcedureStepStartTime": "093637.203000",
        "PhotometricInterpretation": "MONOCHROME2",
        "PixelBandwidth": 1905.0,
        "PixelRepresentation": 0,
        "PixelSpacing": [
          4.0,
          4.0
        ],
        "PositionReferenceIndicator": "",
        "ProtocolName": "ep2d_bold_ad_movie_3A",
        "RepetitionTime": 2500.0,
        "Rows": 384,
        "SAR": 0.13975510996661,
        "SamplesPerPixel": 1,
        "ScanOptions": "FS",
        "ScanningSequence": "EP",
        "SequenceName": "*epfid2d1_64",
        "SequenceVariant": "SK",
        "SeriesDescription": "ep2d_bold_ad_movie_3A",
        "SeriesNumber": 8,
        "SeriesTime": "100634.656000",
        "SliceLocation": -16.999238982018,
        "SliceThickness": 4.0,
        "SmallestImagePixelValue": 0,
        "SoftwareVersions": "syngo MR B17",
        "SpacingBetweenSlices": 4.0000009950011,
        "SpecificCharacterSet": "ISO_IR 100",
        "StudyID": "1",
        "StudyTime": "093637.062000",
        "TransmitCoilName": "Body",
        "VariableFlipAngleFlag": "N",
        "WindowCenterWidthExplanation": "Algo1",
        "dBdt": 0.0
      },
      "slices": {}
    },
    "modality": "bold",
    "subject_id": "CTS219",
    "task_id": "restmovieadaptive",
    "time": {
      "samples": {
        "AcquisitionNumber": [
          1,
          2,
          3,
          4,
          5,
          6,
          7,
          8,
          9,
          10,
          11,
          12,
          13,
          14,
          15,
          16,
          17,
          18,
          19,
          20,
          21,
          22,
          23,
          24,
          25,
          26,
          27,
          28,
          29,
          30,
          31,
          32,
          33,
          34,
          35,
          36,
          37,
          38,
          39,
          40,
          41,
          42,
          43,
          44,
          45,
          46,
          47,
          48,
          49,
          50,
          51,
          52,
          53,
          54,
          55,
          56,
          57,
          58,
          59,
          60,
          61,
          62,
          63,
          64,
          65,
          66,
          67,
          68,
          69,
          70,
          71,
          72,
          73,
          74,
          75,
          76,
          77,
          78,
          79,
          80,
          81,
          82,
          83,
          84,
          85,
          86,
          87,
          88,
          89,
          90,
          91,
          92,
          93,
          94,
          95,
          96,
          97,
          98,
          99,
          100,
          101,
          102,
          103,
          104,
          105,
          106,
          107,
          108,
          109,
          110,
          111,
          112,
          113,
          114,
          115,
          116,
          117,
          118,
          119,
          120,
          121,
          122,
          123,
          124,
          125,
          126,
          127,
          128,
          129,
          130,
          131,
          132,
          133,
          134,
          135,
          136,
          137,
          138,
          139,
          140,
          141,
          142,
          143,
          144,
          145,
          146,
          147,
          148,
          149,
          150,
          151,
          152,
          153,
          154,
          155,
          156,
          157,
          158,
          159,
          160,
          161,
          162,
          163,
          164
        ],
        "AcquisitionTime": [
          "100632.977500",
          "100635.487500",
          "100637.997500",
          "100640.507500",
          "100643.017500",
          "100645.530000",
          "100648.040000",
          "100650.550000",
          "100653.060000",
          "100655.570000",
          "100658.080000",
          "100700.590000",
          "100703.100000",
          "100705.610000",
          "100708.120000",
          "100710.630000",
          "100713.140000",
          "100715.650000",
          "100718.160000",
          "100720.670000",
          "100723.180000",
          "100725.690000",
          "100728.200000",
          "100730.710000",
          "100733.220000",
          "100735.730000",
          "100738.240000",
          "100740.750000",
          "100743.260000",
          "100745.770000",
          "100748.280000",
          "100750.790000",
          "100753.300000",
          "100755.810000",
          "100758.320000",
          "100800.830000",
          "100803.340000",
          "100805.850000",
          "100808.360000",
          "100810.870000",
          "100813.380000",
          "100815.890000",
          "100818.400000",
          "100820.910000",
          "100823.420000",
          "100825.930000",
          "100828.440000",
          "100830.950000",
          "100833.460000",
          "100835.970000",
          "100838.480000",
          "100840.990000",
          "100843.500000",
          "100846.010000",
          "100848.520000",
          "100851.030000",
          "100853.540000",
          "100856.050000",
          "100858.560000",
          "100901.070000",
          "100903.580000",
          "100906.090000",
          "100908.600000",
          "100911.110000",
          "100913.620000",
          "100916.130000",
          "100918.640000",
          "100921.152500",
          "100923.662500",
          "100926.172500",
          "100928.682500",
          "100931.192500",
          "100933.702500",
          "100936.212500",
          "100938.722500",
          "100941.232500",
          "100943.742500",
          "100946.252500",
          "100948.762500",
          "100951.272500",
          "100953.782500",
          "100956.292500",
          "100958.802500",
          "101001.312500",
          "101003.822500",
          "101006.332500",
          "101008.842500",
          "101011.352500",
          "101013.862500",
          "101016.372500",
          "101018.882500",
          "101021.392500",
          "101023.902500",
          "101026.412500",
          "101028.922500",
          "101031.432500",
          "101033.942500",
          "101036.452500",
          "101038.962500",
          "101041.472500",
          "101043.982500",
          "101046.492500",
          "101049.002500",
          "101051.512500",
          "101054.022500",
          "101056.532500",
          "101059.042500",
          "101101.552500",
          "101104.062500",
          "101106.572500",
          "101109.082500",
          "101111.592500",
          "101114.102500",
          "101116.612500",
          "101119.122500",
          "101121.632500",
          "101124.142500",
          "101126.652500",
          "101129.162500",
          "101131.672500",
          "101134.182500",
          "101136.692500",
          "101139.202500",
          "101141.712500",
          "101144.222500",
          "101146.732500",
          "101149.242500",
          "101151.752500",
          "101154.262500",
          "101156.775000",
          "101159.285000",
          "101201.795000",
          "101204.305000",
          "101206.815000",
          "101209.325000",
          "101211.835000",
          "101214.345000",
          "101216.855000",
          "101219.365000",
          "101221.875000",
          "101224.385000",
          "101226.895000",
          "101229.405000",
          "101231.915000",
          "101234.425000",
          "101236.935000",
          "101239.445000",
          "101241.955000",
          "101244.465000",
          "101246.975000",
          "101249.485000",
          "101251.995000",
          "101254.505000",
          "101257.015000",
          "101259.525000",
          "101302.035000",
          "101304.545000",
          "101307.055000",
          "101309.565000",
          "101312.075000",
          "101314.585000",
          "101317.095000",
          "101319.605000",
          "101322.115000"
        ],
        "ContentTime": [
          "100634.656000",
          "100637.156000",
          "100639.656000",
          "100642.156000",
          "100644.656000",
          "100647.156000",
          "100649.656000",
          "100652.156000",
          "100654.656000",
          "100657.156000",
          "100659.656000",
          "100702.156000",
          "100704.656000",
          "100707.156000",
          "100709.656000",
          "100712.156000",
          "100714.656000",
          "100717.156000",
          "100719.656000",
          "100722.156000",
          "100724.656000",
          "100727.156000",
          "100729.656000",
          "100732.156000",
          "100734.656000",
          "100737.156000",
          "100739.656000",
          "100742.156000",
          "100744.656000",
          "100747.156000",
          "100749.656000",
          "100752.156000",
          "100754.656000",
          "100757.156000",
          "100759.656000",
          "100802.156000",
          "100804.656000",
          "100807.156000",
          "100809.656000",
          "100812.156000",
          "100814.656000",
          "100817.156000",
          "100819.656000",
          "100822.156000",
          "100824.656000",
          "100827.156000",
          "100829.656000",
          "100832.156000",
          "100834.656000",
          "100837.156000",
          "100839.656000",
          "100842.156000",
          "100844.656000",
          "100847.156000",
          "100849.656000",
          "100852.156000",
          "100854.656000",
          "100857.156000",
          "100859.656000",
          "100902.156000",
          "100904.656000",
          "100907.156000",
          "100909.656000",
          "100912.156000",
          "100914.656000",
          "100917.156000",
          "100919.656000",
          "100922.156000",
          "100924.656000",
          "100927.156000",
          "100929.656000",
          "100932.156000",
          "100934.656000",
          "100937.156000",
          "100939.656000",
          "100942.156000",
          "100944.656000",
          "100947.156000",
          "100949.656000",
          "100952.156000",
          "100954.656000",
          "100957.156000",
          "100959.656000",
          "101002.156000",
          "101004.656000",
          "101007.156000",
          "101009.656000",
          "101012.156000",
          "101014.656000",
          "101017.156000",
          "101019.656000",
          "101022.156000",
          "101024.656000",
          "101027.156000",
          "101029.656000",
          "101032.156000",
          "101034.656000",
          "101037.171000",
          "101039.656000",
          "101042.156000",
          "101044.656000",
          "101047.156000",
          "101049.656000",
          "101052.156000",
          "101054.656000",
          "101057.156000",
          "101059.656000",
          "101102.156000",
          "101104.656000",
          "101107.156000",
          "101109.656000",
          "101112.156000",
          "101114.656000",
          "101117.156000",
          "101119.656000",
          "101122.156000",
          "101124.656000",
          "101127.156000",
          "101129.656000",
          "101132.156000",
          "101134.656000",
          "101137.156000",
          "101139.656000",
          "101142.156000",
          "101144.656000",
          "101147.156000",
          "101149.656000",
          "101152.156000",
          "101154.656000",
          "101157.156000",
          "101159.656000",
          "101202.156000",
          "101204.656000",
          "101207.156000",
          "101209.656000",
          "101212.156000",
          "101214.656000",
          "101217.156000",
          "101219.656000",
          "101222.156000",
          "101224.656000",
          "101227.156000",
          "101229.656000",
          "101232.156000",
          "101234.656000",
          "101237.156000",
          "101239.656000",
          "101242.156000",
          "101244.656000",
          "101247.156000",
          "101249.656000",
          "101252.156000",
          "101254.656000",
          "101257.156000",
          "101259.656000",
          "101302.156000",
          "101304.656000",
          "101307.156000",
          "101309.656000",
          "101312.156000",
          "101314.656000",
          "101317.156000",
          "101319.656000",
          "101321.859000"
        ],
        "InstanceCreationTime": [
          "100634.656000",
          "100637.156000",
          "100639.656000",
          "100642.156000",
          "100644.656000",
          "100647.156000",
          "100649.656000",
          "100652.156000",
          "100654.656000",
          "100657.156000",
          "100659.656000",
          "100702.156000",
          "100704.656000",
          "100707.156000",
          "100709.656000",
          "100712.156000",
          "100714.656000",
          "100717.156000",
          "100719.656000",
          "100722.156000",
          "100724.656000",
          "100727.156000",
          "100729.656000",
          "100732.156000",
          "100734.656000",
          "100737.156000",
          "100739.656000",
          "100742.156000",
          "100744.656000",
          "100747.156000",
          "100749.656000",
          "100752.156000",
          "100754.656000",
          "100757.156000",
          "100759.656000",
          "100802.156000",
          "100804.656000",
          "100807.156000",
          "100809.656000",
          "100812.156000",
          "100814.656000",
          "100817.156000",
          "100819.656000",
          "100822.156000",
          "100824.656000",
          "100827.156000",
          "100829.656000",
          "100832.156000",
          "100834.656000",
          "100837.156000",
          "100839.656000",
          "100842.156000",
          "100844.656000",
          "100847.156000",
          "100849.656000",
          "100852.156000",
          "100854.656000",
          "100857.156000",
          "100859.656000",
          "100902.156000",
          "100904.656000",
          "100907.156000",
          "100909.656000",
          "100912.156000",
          "100914.656000",
          "100917.156000",
          "100919.656000",
          "100922.156000",
          "100924.656000",
          "100927.156000",
          "100929.656000",
          "100932.156000",
          "100934.656000",
          "100937.156000",
          "100939.656000",
          "100942.156000",
          "100944.656000",
          "100947.156000",
          "100949.656000",
          "100952.156000",
          "100954.656000",
          "100957.156000",
          "100959.656000",
          "101002.156000",
          "101004.656000",
          "101007.156000",
          "101009.656000",
          "101012.156000",
          "101014.656000",
          "101017.156000",
          "101019.656000",
          "101022.156000",
          "101024.656000",
          "101027.156000",
          "101029.656000",
          "101032.156000",
          "101034.656000",
          "101037.171000",
          "101039.656000",
          "101042.156000",
          "101044.656000",
          "101047.156000",
          "101049.656000",
          "101052.156000",
          "101054.656000",
          "101057.156000",
          "101059.656000",
          "101102.156000",
          "101104.656000",
          "101107.156000",
          "101109.656000",
          "101112.156000",
          "101114.656000",
          "101117.156000",
          "101119.656000",
          "101122.156000",
          "101124.656000",
          "101127.156000",
          "101129.656000",
          "101132.156000",
          "101134.656000",
          "101137.156000",
          "101139.656000",
          "101142.156000",
          "101144.656000",
          "101147.156000",
          "101149.656000",
          "101152.156000",
          "101154.656000",
          "101157.156000",
          "101159.656000",
          "101202.156000",
          "101204.656000",
          "101207.156000",
          "101209.656000",
          "101212.156000",
          "101214.656000",
          "101217.156000",
          "101219.656000",
          "101222.156000",
          "101224.656000",
          "101227.156000",
          "101229.656000",
          "101232.156000",
          "101234.656000",
          "101237.156000",
          "101239.656000",
          "101242.156000",
          "101244.656000",
          "101247.156000",
          "101249.656000",
          "101252.156000",
          "101254.656000",
          "101257.156000",
          "101259.656000",
          "101302.156000",
          "101304.656000",
          "101307.156000",
          "101309.656000",
          "101312.156000",
          "101314.656000",
          "101317.156000",
          "101319.656000",
          "101321.859000"
        ],
        "InstanceNumber": [
          1,
          2,
          3,
          4,
          5,
          6,
          7,
          8,
          9,
          10,
          11,
          12,
          13,
          14,
          15,
          16,
          17,
          18,
          19,
          20,
          21,
          22,
          23,
          24,
          25,
          26,
          27,
          28,
          29,
          30,
          31,
          32,
          33,
          34,
          35,
          36,
          37,
          38,
          39,
          40,
          41,
          42,
          43,
          44,
          45,
          46,
          47,
          48,
          49,
          50,
          51,
          52,
          53,
          54,
          55,
          56,
          57,
          58,
          59,
          60,
          61,
          62,
          63,
          64,
          65,
          66,
          67,
          68,
          69,
          70,
          71,
          72,
          73,
          74,
          75,
          76,
          77,
          78,
          79,
          80,
          81,
          82,
          83,
          84,
          85,
          86,
          87,
          88,
          89,
          90,
          91,
          92,
          93,
          94,
          95,
          96,
          97,
          98,
          99,
          100,
          101,
          102,
          103,
          104,
          105,
          106,
          107,
          108,
          109,
          110,
          111,
          112,
          113,
          114,
          115,
          116,
          117,
          118,
          119,
          120,
          121,
          122,
          123,
          124,
          125,
          126,
          127,
          128,
          129,
          130,
          131,
          132,
          133,
          134,
          135,
          136,
          137,
          138,
          139,
          140,
          141,
          142,
          143,
          144,
          145,
          146,
          147,
          148,
          149,
          150,
          151,
          152,
          153,
          154,
          155,
          156,
          157,
          158,
          159,
          160,
          161,
          162,
          163,
          164
        ],
        "LargestImagePixelValue": [
          1193,
          1262,
          1383,
          1336,
          1183,
          1266,
          1186,
          1182,
          1369,
          1388,
          1503,
          1380,
          1241,
          1201,
          1190,
          1156,
          1182,
          1298,
          1424,
          1373,
          1331,
          1329,
          1342,
          1349,
          1348,
          1351,
          1372,
          1371,
          1343,
          1332,
          1414,
          1394,
          1331,
          1290,
          1255,
          1176,
          1134,
          1410,
          1382,
          1381,
          1250,
          1130,
          1152,
          1189,
          1442,
          1342,
          1302,
          1207,
          1176,
          1135,
          1132,
          1152,
          1176,
          1410,
          1406,
          1362,
          1375,
          1390,
          1377,
          1257,
          1213,
          1203,
          1141,
          1141,
          1150,
          1167,
          1131,
          1141,
          1216,
          1330,
          1265,
          1434,
          1478,
          1270,
          1258,
          1272,
          1194,
          1184,
          1212,
          1164,
          1219,
          1226,
          1292,
          1272,
          1264,
          1319,
          1227,
          1247,
          1239,
          1253,
          1248,
          1155,
          1160,
          1240,
          1397,
          1364,
          1248,
          1166,
          1149,
          1143,
          1161,
          1190,
          1265,
          1369,
          1397,
          1350,
          1250,
          1173,
          1194,
          1209,
          1136,
          1194,
          1161,
          1159,
          1138,
          1127,
          1123,
          1189,
          1127,
          1167,
          1137,
          1136,
          1129,
          1132,
          1178,
          1194,
          1589,
          1180,
          1240,
          1307,
          1550,
          1405,
          1290,
          1286,
          1305,
          1296,
          1348,
          1310,
          1233,
          1200,
          1205,
          1204,
          1248,
          1288,
          1148,
          1160,
          1196,
          1253,
          1385,
          1416,
          1379,
          1254,
          1273,
          1279,
          1214,
          1201,
          1187,
          1246,
          1360,
          1376,
          1224,
          1152,
          1186,
          1200
        ],
        "WindowCenter": [
          570.0,
          570.0,
          572.0,
          572.0,
          570.0,
          571.0,
          569.0,
          569.0,
          570.0,
          571.0,
          573.0,
          572.0,
          570.0,
          570.0,
          568.0,
          570.0,
          570.0,
          570.0,
          572.0,
          571.0,
          571.0,
          570.0,
          569.0,
          569.0,
          569.0,
          570.0,
          570.0,
          570.0,
          571.0,
          570.0,
          571.0,
          570.0,
          570.0,
          571.0,
          568.0,
          569.0,
          569.0,
          570.0,
          571.0,
          573.0,
          570.0,
          569.0,
          571.0,
          570.0,
          568.0,
          571.0,
          571.0,
          570.0,
          568.0,
          569.0,
          570.0,
          571.0,
          569.0,
          572.0,
          571.0,
          572.0,
          571.0,
          571.0,
          570.0,
          570.0,
          571.0,
          569.0,
          564.0,
          570.0,
          569.0,
          570.0,
          568.0,
          568.0,
          570.0,
          571.0,
          572.0,
          572.0,
          571.0,
          568.0,
          568.0,
          569.0,
          569.0,
          569.0,
          571.0,
          569.0,
          570.0,
          571.0,
          570.0,
          571.0,
          570.0,
          572.0,
          570.0,
          567.0,
          569.0,
          571.0,
          569.0,
          570.0,
          569.0,
          571.0,
          569.0,
          570.0,
          570.0,
          569.0,
          568.0,
          568.0,
          568.0,
          569.0,
          570.0,
          569.0,
          571.0,
          570.0,
          571.0,
          568.0,
          569.0,
          569.0,
          569.0,
          569.0,
          569.0,
          569.0,
          567.0,
          569.0,
          569.0,
          569.0,
          568.0,
          568.0,
          570.0,
          569.0,
          567.0,
          569.0,
          570.0,
          570.0,
          568.0,
          565.0,
          569.0,
          571.0,
          571.0,
          571.0,
          570.0,
          570.0,
          570.0,
          571.0,
          571.0,
          570.0,
          571.0,
          566.0,
          570.0,
          570.0,
          571.0,
          569.0,
          567.0,
          569.0,
          570.0,
          569.0,
          571.0,
