{
  "aor": 0.008548658536585365,
  "aqi": 0.0066988056707317075,
  "bids_meta": {
    "AcquisitionMatrixPE": 64,
    "AcquisitionNumber": 1,
    "AcquisitionTime": "09:58:4.037500",
    "BandwidthPerPixelPhaseEncode": 26.483,
    "BaseResolution": 64,
    "BodyPartExamined": "HEAD",
    "CogAtlasID": "TODO",
    "ConversionSoftware": "dcm2niix",
    "ConversionSoftwareVersion": "v1.0.20171017 GCC6.3.0",
    "DerivedVendorReportedEchoSpacing": 0.000590001,
    "DeviceSerialNumber": "35177",
    "DwellTime": 4.1e-06,
    "EchoTime": 0.027,
    "EffectiveEchoSpacing": 0.000590001,
    "FlipAngle": 90,
    "ImageOrientationPatientDICOM": [
      0.999462,
      -0.000624351,
      -0.0327962,
      0.00397798,
      0.994747,
      0.102292
    ],
    "ImageType": [
      "ORIGINAL",
      "PRIMARY",
      "M",
      "ND",
      "NORM",
      "MOSAIC"
    ],
    "InPlanePhaseEncodingDirectionDICOM": "COL",
    "InstitutionAddress": "Scott_Ave._4525_St._Louis_MO_US_63110",
    "InstitutionName": "Washington_University",
    "InstitutionalDepartmentName": "Department",
    "MRAcquisitionType": "2D",
    "MagneticFieldStrength": 3,
    "Manufacturer": "Siemens",
    "ManufacturersModelName": "TrioTim",
    "Modality": "MR",
    "PartialFourier": 1,
    "PatientPosition": "HFS",
    "PercentPhaseFOV": 100,
    "PhaseEncodingDirection": "j-",
    "PhaseEncodingSteps": 64,
    "PhaseResolution": 1,
    "PixelBandwidth": 1905,
    "ProcedureStepDescription": "head_GREENE",
    "ProtocolName": "ep2d_bold_nonad_movie_1B",
    "PulseSequenceDetails": "%SiemensSeq%_ep2d_bold",
    "ReceiveCoilName": "HeadMatrix",
    "ReconMatrixPE": 64,
    "RepetitionTime": 2.5,
    "SAR": 0.139755,
    "ScanOptions": "FS",
    "ScanningSequence": "EP",
    "SequenceName": "_epfid2d1_64",
    "SequenceVariant": "SK",
    "SeriesDescription": "ep2d_bold_nonad_movie_1B",
    "SeriesNumber": 7,
    "ShimSetting": [
      -250,
      -19654,
      7962,
      97,
      61,
      -423,
      -82,
      127
    ],
    "SliceThickness": 4,
    "SliceTiming": [
      1.255,
      0,
      1.3325,
      0.0775,
      1.4125,
      0.1575,
      1.49,
      0.235,
      1.5675,
      0.3125,
      1.6475,
      0.3925,
      1.725,
      0.47,
      1.8025,
      0.55,
      1.8825,
      0.6275,
      1.96,
      0.705,
      2.04,
      0.785,
      2.1175,
      0.8625,
      2.195,
      0.94,
      2.275,
      1.02,
      2.3525,
      1.0975,
      2.43,
      1.1775
    ],
    "SoftwareVersions": "syngo_MR_B17",
    "SpacingBetweenSlices": 4,
    "StationName": "MRC35177",
    "TaskName": "restmoviefixed",
    "TotalReadoutTime": 0.0371701,
    "TxRefAmp": 318.717,
    "dataset": "ds000256",
    "dcmmeta_affine": [
      [
        -3.997847557067871,
        0.01591193862259388,
        -0.13024021685123444,
        126.95643615722656
      ],
      [
        0.0024974020197987556,
        3.9789860248565674,
        0.40946781635284424,
        -128.20947265625
      ],
      [
        -0.13118481636047363,
        -0.4091660678386688,
        3.976855754852295,
        0.2603847086429596
      ],
      [
        0.0,
        0.0,
        0.0,
        1.0
      ]
    ],
    "dcmmeta_reorient_transform": [
      [
        0.0,
        -1.0,
        0.0,
        63.0
      ],
      [
        1.0,
        0.0,
        0.0,
        0.0
      ],
      [
        0.0,
        0.0,
        1.0,
        0.0
      ],
      [
        0.0,
        0.0,
        0.0,
        1.0
      ]
    ],
    "dcmmeta_shape": [
      64,
      64,
      32,
      164
    ],
    "dcmmeta_slice_dim": 2,
    "dcmmeta_version": 0.6,
    "global": {
      "const": {
        "AccessionNumber": ".",
        "AcquisitionMatrix": [
          64,
          0,
          0,
          64
        ],
        "AngioFlag": "N",
        "BitsAllocated": 16,
        "BitsStored": 12,
        "BodyPartExamined": "HEAD",
        "Columns": 384,
        "DeidentificationMethodCodeSequence": [
          {
            "CodeMeaning": "XNAT Edit Script",
            "CodeValue": "625500",
            "CodingSchemeDesignator": "XNAT",
            "CodingSchemeVersion": "0.1"
          }
        ],
        "EchoNumbers": 1,
        "EchoTime": 27.0,
        "EchoTrainLength": 1,
        "FlipAngle": 90.0,
        "HighBit": 11,
        "ImageOrientationPatient": [
          0.99946186474609,
          -0.000624350529,
          -0.0327962056446,
          0.00397798474441,
          0.99474651129368,
          0.1022915143422
        ],
        "ImagePositionPatient": [
          -770.16039575306,
          -758.70483697295,
          -69.994074478437
        ],
        "ImageType": [
          "ORIGINAL",
          "PRIMARY",
          "M",
          "ND",
          "NORM",
          "MOSAIC"
        ],
        "ImagedNucleus": "1H",
        "ImagingFrequency": 123.255928,
        "InPlanePhaseEncodingDirection": "COL",
        "MRAcquisitionType": "2D",
        "MagneticFieldStrength": 3.0,
        "Manufacturer": "SIEMENS",
        "ManufacturerModelName": "TrioTim",
        "Modality": "MR",
        "NumberOfAverages": 1.0,
        "NumberOfPhaseEncodingSteps": 64,
        "PercentPhaseFieldOfView": 100.0,
        "PercentSampling": 100.0,
        "PerformedProcedureStepStartTime": "093637.203000",
        "PhotometricInterpretation": "MONOCHROME2",
        "PixelBandwidth": 1905.0,
        "PixelRepresentation": 0,
        "PixelSpacing": [
          4.0,
          4.0
        ],
        "PositionReferenceIndicator": "",
        "ProtocolName": "ep2d_bold_nonad_movie_1B",
        "RepetitionTime": 2500.0,
        "Rows": 384,
        "SAR": 0.13975510996661,
        "SamplesPerPixel": 1,
        "ScanOptions": "FS",
        "ScanningSequence": "EP",
        "SequenceName": "*epfid2d1_64",
        "SequenceVariant": "SK",
        "SeriesDescription": "ep2d_bold_nonad_movie_1B",
        "SeriesNumber": 7,
        "SeriesTime": "095805.781000",
        "SliceLocation": -16.999238982018,
        "SliceThickness": 4.0,
        "SmallestImagePixelValue": 0,
        "SoftwareVersions": "syngo MR B17",
        "SpacingBetweenSlices": 4.0000009950011,
        "SpecificCharacterSet": "ISO_IR 100",
        "StudyID": "1",
        "StudyTime": "093637.062000",
        "TransmitCoilName": "Body",
        "VariableFlipAngleFlag": "N",
        "WindowCenterWidthExplanation": "Algo1",
        "dBdt": 0.0
      },
      "slices": {}
    },
    "modality": "bold",
    "subject_id": "CTS219",
    "task_id": "restmoviefixed",
    "time": {
      "samples": {
        "AcquisitionNumber": [
          1,
          2,
          3,
          4,
          5,
          6,
          7,
          8,
          9,
          10,
          11,
          12,
          13,
          14,
          15,
          16,
          17,
          18,
          19,
          20,
          21,
          22,
          23,
          24,
          25,
          26,
          27,
          28,
          29,
          30,
          31,
          32,
          33,
          34,
          35,
          36,
          37,
          38,
          39,
          40,
          41,
          42,
          43,
          44,
          45,
          46,
          47,
          48,
          49,
          50,
          51,
          52,
          53,
          54,
          55,
          56,
          57,
          58,
          59,
          60,
          61,
          62,
          63,
          64,
          65,
          66,
          67,
          68,
          69,
          70,
          71,
          72,
          73,
          74,
          75,
          76,
          77,
          78,
          79,
          80,
          81,
          82,
          83,
          84,
          85,
          86,
          87,
          88,
          89,
          90,
          91,
          92,
          93,
          94,
          95,
          96,
          97,
          98,
          99,
          100,
          101,
          102,
          103,
          104,
          105,
          106,
          107,
          108,
          109,
          110,
          111,
          112,
          113,
          114,
          115,
          116,
          117,
          118,
          119,
          120,
          121,
          122,
          123,
          124,
          125,
          126,
          127,
          128,
          129,
          130,
          131,
          132,
          133,
          134,
          135,
          136,
          137,
          138,
          139,
          140,
          141,
          142,
          143,
          144,
          145,
          146,
          147,
          148,
          149,
          150,
          151,
          152,
          153,
          154,
          155,
          156,
          157,
          158,
          159,
          160,
          161,
          162,
          163,
          164
        ],
        "AcquisitionTime": [
          "095804.037500",
          "095806.547500",
          "095809.057500",
          "095811.567500",
          "095814.077500",
          "095816.587500",
          "095819.097500",
          "095821.607500",
          "095824.117500",
          "095826.627500",
          "095829.137500",
          "095831.647500",
          "095834.157500",
          "095836.667500",
          "095839.177500",
          "095841.687500",
          "095844.197500",
          "095846.707500",
          "095849.217500",
          "095851.727500",
          "095854.237500",
          "095856.747500",
          "095859.257500",
          "095901.767500",
          "095904.277500",
          "095906.787500",
          "095909.297500",
          "095911.807500",
          "095914.317500",
          "095916.827500",
          "095919.337500",
          "095921.847500",
          "095924.357500",
          "095926.867500",
          "095929.377500",
          "095931.887500",
          "095934.397500",
          "095936.907500",
          "095939.417500",
          "095941.927500",
          "095944.440000",
          "095946.950000",
          "095949.460000",
          "095951.970000",
          "095954.480000",
          "095956.990000",
          "095959.500000",
          "100002.010000",
          "100004.520000",
          "100007.030000",
          "100009.540000",
          "100012.050000",
          "100014.560000",
          "100017.070000",
          "100019.580000",
          "100022.090000",
          "100024.600000",
          "100027.110000",
          "100029.620000",
          "100032.130000",
          "100034.640000",
          "100037.150000",
          "100039.660000",
          "100042.170000",
          "100044.680000",
          "100047.190000",
          "100049.700000",
          "100052.210000",
          "100054.720000",
          "100057.230000",
          "100059.740000",
          "100102.250000",
          "100104.760000",
          "100107.270000",
          "100109.780000",
          "100112.290000",
          "100114.800000",
          "100117.310000",
          "100119.820000",
          "100122.330000",
          "100124.840000",
          "100127.350000",
          "100129.860000",
          "100132.370000",
          "100134.880000",
          "100137.390000",
          "100139.900000",
          "100142.410000",
          "100144.920000",
          "100147.430000",
          "100149.940000",
          "100152.450000",
          "100154.960000",
          "100157.470000",
          "100159.980000",
          "100202.490000",
          "100205.000000",
          "100207.510000",
          "100210.020000",
          "100212.530000",
          "100215.040000",
          "100217.550000",
          "100220.062500",
          "100222.572500",
          "100225.082500",
          "100227.592500",
          "100230.102500",
          "100232.612500",
          "100235.122500",
          "100237.632500",
          "100240.142500",
          "100242.652500",
          "100245.162500",
          "100247.672500",
          "100250.182500",
          "100252.692500",
          "100255.202500",
          "100257.712500",
          "100300.222500",
          "100302.732500",
          "100305.242500",
          "100307.752500",
          "100310.262500",
          "100312.772500",
          "100315.282500",
          "100317.792500",
          "100320.302500",
          "100322.812500",
          "100325.322500",
          "100327.832500",
          "100330.342500",
          "100332.852500",
          "100335.362500",
          "100337.872500",
          "100340.382500",
          "100342.892500",
          "100345.402500",
          "100347.912500",
          "100350.422500",
          "100352.932500",
          "100355.442500",
          "100357.952500",
          "100400.462500",
          "100402.972500",
          "100405.482500",
          "100407.992500",
          "100410.502500",
          "100413.012500",
          "100415.522500",
          "100418.032500",
          "100420.542500",
          "100423.052500",
          "100425.562500",
          "100428.072500",
          "100430.582500",
          "100433.092500",
          "100435.602500",
          "100438.112500",
          "100440.622500",
          "100443.132500",
          "100445.642500",
          "100448.152500",
          "100450.662500",
          "100453.172500"
        ],
        "ContentTime": [
          "095805.781000",
          "095808.281000",
          "095810.781000",
          "095813.281000",
          "095815.781000",
          "095818.281000",
          "095820.781000",
          "095823.281000",
          "095825.781000",
          "095828.281000",
          "095830.781000",
          "095833.281000",
          "095835.781000",
          "095838.281000",
          "095840.781000",
          "095843.281000",
          "095845.781000",
          "095848.281000",
          "095850.781000",
          "095853.281000",
          "095855.781000",
          "095858.281000",
          "095900.781000",
          "095903.281000",
          "095905.781000",
          "095908.281000",
          "095910.781000",
          "095913.281000",
          "095915.781000",
          "095918.281000",
          "095920.781000",
          "095923.281000",
          "095925.781000",
          "095928.281000",
          "095930.781000",
          "095933.281000",
          "095935.781000",
          "095938.281000",
          "095940.781000",
          "095943.281000",
          "095945.781000",
          "095948.281000",
          "095950.781000",
          "095953.281000",
          "095955.781000",
          "095958.281000",
          "100000.781000",
          "100003.281000",
          "100005.781000",
          "100008.281000",
          "100010.781000",
          "100013.281000",
          "100015.781000",
          "100018.281000",
          "100020.781000",
          "100023.281000",
          "100025.781000",
          "100028.281000",
          "100030.781000",
          "100033.281000",
          "100035.781000",
          "100038.281000",
          "100040.781000",
          "100043.281000",
          "100045.781000",
          "100048.281000",
          "100050.781000",
          "100053.281000",
          "100055.781000",
          "100058.281000",
          "100100.781000",
          "100103.281000",
          "100105.781000",
          "100108.281000",
          "100110.781000",
          "100113.281000",
          "100115.781000",
          "100118.281000",
          "100120.781000",
          "100123.281000",
          "100125.781000",
          "100128.281000",
          "100130.781000",
          "100133.281000",
          "100135.781000",
          "100138.281000",
          "100140.781000",
          "100143.281000",
          "100145.781000",
          "100148.281000",
          "100150.781000",
          "100153.281000",
          "100155.781000",
          "100158.281000",
          "100200.781000",
          "100203.281000",
          "100205.781000",
          "100208.281000",
          "100210.781000",
          "100213.281000",
          "100215.781000",
          "100218.281000",
          "100220.781000",
          "100223.281000",
          "100225.781000",
          "100228.281000",
          "100230.781000",
          "100233.281000",
          "100235.781000",
          "100238.281000",
          "100240.781000",
          "100243.281000",
          "100245.781000",
          "100248.281000",
          "100250.781000",
          "100253.281000",
          "100255.781000",
          "100258.281000",
          "100300.781000",
          "100303.281000",
          "100305.781000",
          "100308.281000",
          "100310.781000",
          "100313.281000",
          "100315.781000",
          "100318.281000",
          "100320.781000",
          "100323.281000",
          "100325.781000",
          "100328.281000",
          "100330.781000",
          "100333.281000",
          "100335.781000",
          "100338.281000",
          "100340.781000",
          "100343.281000",
          "100345.781000",
          "100348.281000",
          "100350.781000",
          "100353.281000",
          "100355.781000",
          "100358.281000",
          "100400.781000",
          "100403.281000",
          "100405.781000",
          "100408.281000",
          "100410.781000",
          "100413.281000",
          "100415.781000",
          "100418.281000",
          "100420.781000",
          "100423.281000",
          "100425.781000",
          "100428.281000",
          "100430.781000",
          "100433.281000",
          "100435.781000",
          "100438.281000",
          "100440.781000",
          "100443.281000",
          "100445.781000",
          "100448.281000",
          "100450.781000",
          "100453.015000"
        ],
        "InstanceCreationTime": [
          "095805.781000",
          "095808.281000",
          "095810.781000",
          "095813.281000",
          "095815.781000",
          "095818.281000",
          "095820.781000",
          "095823.281000",
          "095825.781000",
          "095828.281000",
          "095830.781000",
          "095833.281000",
          "095835.781000",
          "095838.281000",
          "095840.781000",
          "095843.281000",
          "095845.781000",
          "095848.281000",
          "095850.781000",
          "095853.281000",
          "095855.781000",
          "095858.281000",
          "095900.781000",
          "095903.281000",
          "095905.781000",
          "095908.281000",
          "095910.781000",
          "095913.281000",
          "095915.781000",
          "095918.281000",
          "095920.781000",
          "095923.281000",
          "095925.781000",
          "095928.281000",
          "095930.781000",
          "095933.281000",
          "095935.781000",
          "095938.281000",
          "095940.781000",
          "095943.281000",
          "095945.781000",
          "095948.281000",
          "095950.781000",
          "095953.281000",
          "095955.781000",
          "095958.281000",
          "100000.781000",
          "100003.281000",
          "100005.781000",
          "100008.281000",
          "100010.781000",
          "100013.281000",
          "100015.781000",
          "100018.281000",
          "100020.781000",
          "100023.281000",
          "100025.781000",
          "100028.281000",
          "100030.781000",
          "100033.281000",
          "100035.781000",
          "100038.281000",
          "100040.781000",
          "100043.281000",
          "100045.781000",
          "100048.281000",
          "100050.781000",
          "100053.281000",
          "100055.781000",
          "100058.281000",
          "100100.781000",
          "100103.281000",
          "100105.781000",
          "100108.281000",
          "100110.781000",
          "100113.281000",
          "100115.781000",
          "100118.281000",
          "100120.781000",
          "100123.281000",
          "100125.781000",
          "100128.281000",
          "100130.781000",
          "100133.281000",
          "100135.781000",
          "100138.281000",
          "100140.781000",
          "100143.281000",
          "100145.781000",
          "100148.281000",
          "100150.781000",
          "100153.281000",
          "100155.781000",
          "100158.281000",
          "100200.781000",
          "100203.281000",
          "100205.781000",
          "100208.281000",
          "100210.781000",
          "100213.281000",
          "100215.781000",
          "100218.281000",
          "100220.781000",
          "100223.281000",
          "100225.781000",
          "100228.281000",
          "100230.781000",
          "100233.281000",
          "100235.781000",
          "100238.281000",
          "100240.781000",
          "100243.281000",
          "100245.781000",
          "100248.281000",
          "100250.781000",
          "100253.281000",
          "100255.781000",
          "100258.281000",
          "100300.781000",
          "100303.281000",
          "100305.781000",
          "100308.281000",
          "100310.781000",
          "100313.281000",
          "100315.781000",
          "100318.281000",
          "100320.781000",
          "100323.281000",
          "100325.781000",
          "100328.281000",
          "100330.781000",
          "100333.281000",
          "100335.781000",
          "100338.281000",
          "100340.781000",
          "100343.281000",
          "100345.781000",
          "100348.281000",
          "100350.781000",
          "100353.281000",
          "100355.781000",
          "100358.281000",
          "100400.781000",
          "100403.281000",
          "100405.781000",
          "100408.281000",
          "100410.781000",
          "100413.281000",
          "100415.781000",
          "100418.281000",
          "100420.781000",
          "100423.281000",
          "100425.781000",
          "100428.281000",
          "100430.781000",
          "100433.281000",
          "100435.781000",
          "100438.281000",
          "100440.781000",
          "100443.281000",
          "100445.781000",
          "100448.281000",
          "100450.781000",
          "100453.015000"
        ],
        "InstanceNumber": [
          1,
          2,
          3,
          4,
          5,
          6,
          7,
          8,
          9,
          10,
          11,
          12,
          13,
          14,
          15,
          16,
          17,
          18,
          19,
          20,
          21,
          22,
          23,
          24,
          25,
          26,
          27,
          28,
          29,
          30,
          31,
          32,
          33,
          34,
          35,
          36,
          37,
          38,
          39,
          40,
          41,
          42,
          43,
          44,
          45,
          46,
          47,
          48,
          49,
          50,
          51,
          52,
          53,
          54,
          55,
          56,
          57,
          58,
          59,
          60,
          61,
          62,
          63,
          64,
          65,
          66,
          67,
          68,
          69,
          70,
          71,
          72,
          73,
          74,
          75,
          76,
          77,
          78,
          79,
          80,
          81,
          82,
          83,
          84,
          85,
          86,
          87,
          88,
          89,
          90,
          91,
          92,
          93,
          94,
          95,
          96,
          97,
          98,
          99,
          100,
          101,
          102,
          103,
          104,
          105,
          106,
          107,
          108,
          109,
          110,
          111,
          112,
          113,
          114,
          115,
          116,
          117,
          118,
          119,
          120,
          121,
          122,
          123,
          124,
          125,
          126,
          127,
          128,
          129,
          130,
          131,
          132,
          133,
          134,
          135,
          136,
          137,
          138,
          139,
          140,
          141,
          142,
          143,
          144,
          145,
          146,
          147,
          148,
          149,
          150,
          151,
          152,
          153,
          154,
          155,
          156,
          157,
          158,
          159,
          160,
          161,
          162,
          163,
          164
        ],
        "LargestImagePixelValue": [
          1376,
          1501,
          1183,
          1245,
          1200,
          1226,
          1547,
          1626,
          1342,
          1170,
          1179,
          1366,
          1251,
          1283,
          1370,
          1171,
          1188,
          1367,
          1456,
          1195,
          1185,
          1370,
          1264,
          1251,
          1426,
          1332,
          1238,
          1421,
          1189,
          1311,
          1545,
          1303,
          1180,
          1384,
          1285,
          1658,
          1334,
          1174,
          1350,
          1174,
          1235,
          1444,
          1188,
          1240,
          1458,
          1492,
          1185,
          1196,
          1260,
          1446,
          1509,
          1480,
          1186,
          1192,
          1280,
          1413,
          1469,
          1488,
          1180,
          1181,
          1367,
          1435,
          1353,
          1411,
          1277,
          1171,
          1299,
          1263,
          1341,
          1452,
          1607,
          1543,
          1368,
          1313,
          1185,
          1407,
          1224,
          1253,
          1362,
          1359,
          1171,
          1279,
          1171,
          1198,
          1190,
          1318,
          1449,
          1538,
          1392,
          1270,
          1172,
          1172,
          1182,
          1178,
          1181,
          1349,
          1421,
          1422,
          1298,
          1270,
          1231,
          1182,
          1189,
          1175,
          1179,
          1186,
          1211,
          1327,
          1405,
          1457,
          1345,
          1360,
          1222,
          1229,
          1236,
          1221,
          1264,
          1360,
          1369,
          1347,
          1206,
          1186,
          1177,
          1171,
          1158,
          1296,
          1330,
          1410,
          1252,
          1580,
          1313,
          1238,
          1259,
          1432,
          1182,
          1168,
          1405,
          1590,
          1336,
          1184,
          1167,
          1163,
          1264,
          1236,
          1154,
          1277,
          1354,
          1265,
          1484,
          1270,
          1172,
          1167,
          1295,
          1447,
          1335,
          1241,
          1297,
          1403,
          1266,
          1169,
          1177,
          1475,
          1335,
          1208
        ],
        "WindowCenter": [
          568.0,
          572.0,
          565.0,
          567.0,
          572.0,
          564.0,
          566.0,
          567.0,
          561.0,
          562.0,
          564.0,
          567.0,
          568.0,
          568.0,
          569.0,
          568.0,
          568.0,
          568.0,
          569.0,
          567.0,
          567.0,
          569.0,
          569.0,
          568.0,
          568.0,
          573.0,
          568.0,
          569.0,
          567.0,
          568.0,
          568.0,
          568.0,
          567.0,
          569.0,
          569.0,
          570.0,
          567.0,
          566.0,
          567.0,
          566.0,
          567.0,
          568.0,
          567.0,
          567.0,
          568.0,
          567.0,
          571.0,
          567.0,
          567.0,
          573.0,
          570.0,
          568.0,
          568.0,
          567.0,
          568.0,
          573.0,
          569.0,
          569.0,
          566.0,
          569.0,
          566.0,
          567.0,
          567.0,
          567.0,
          567.0,
          565.0,
          567.0,
          568.0,
          569.0,
          567.0,
          571.0,
          574.0,
          565.0,
          564.0,
          564.0,
          568.0,
          562.0,
          568.0,
          566.0,
          571.0,
          571.0,
          570.0,
          564.0,
          566.0,
          571.0,
          568.0,
          574.0,
          569.0,
          573.0,
          567.0,
          565.0,
          567.0,
          567.0,
          566.0,
          566.0,
          571.0,
          573.0,
          568.0,
          567.0,
          573.0,
          572.0,
          567.0,
          567.0,
          566.0,
          565.0,
          565.0,
          566.0,
          572.0,
          568.0,
          568.0,
          566.0,
          571.0,
          571.0,
          566.0,
          566.0,
          566.0,
          570.0,
          567.0,
          567.0,
          566.0,
          566.0,
          565.0,
          564.0,
          564.0,
          564.0,
          567.0,
          571.0,
          569.0,
          568.0,
          569.0,
          566.0,
          566.0,
          567.0,
          568.0,
          566.0,
          564.0,
          572.0,
          569.0,
          567.0,
          567.0,
          564.0,
          566.0,
          567.0,
          567.0,
          566.0,
          566.0,
          568.0,
          571.0,
          567.0,
