{
  "aor": 0.006643536585365853,
  "aqi": 0.01013116951219512,
  "bids_meta": {
    "AcquisitionMatrixPE": 64,
    "AcquisitionNumber": 1,
    "AcquisitionTime": "18:49:35.672500",
    "BandwidthPerPixelPhaseEncode": 26.483,
    "BaseResolution": 64,
    "BodyPartExamined": "HEAD",
    "CogAtlasID": "TODO",
    "ConversionSoftware": "dcm2niix",
    "ConversionSoftwareVersion": "v1.0.20171017 GCC6.3.0",
    "DerivedVendorReportedEchoSpacing": 0.000590001,
    "DeviceSerialNumber": "35177",
    "DwellTime": 4.1e-06,
    "EchoTime": 0.027,
    "EffectiveEchoSpacing": 0.000590001,
    "FlipAngle": 90,
    "ImageOrientationPatientDICOM": [
      0.997695,
      -0.060719,
      0.0302932,
      0.063934,
      0.990732,
      -0.119843
    ],
    "ImageType": [
      "ORIGINAL",
      "PRIMARY",
      "M",
      "ND",
      "NORM",
      "MOSAIC"
    ],
    "InPlanePhaseEncodingDirectionDICOM": "COL",
    "InstitutionAddress": "Scott_Ave._4525_St._Louis_MO_US_63110",
    "InstitutionName": "Washington_University",
    "InstitutionalDepartmentName": "Department",
    "MRAcquisitionType": "2D",
    "MagneticFieldStrength": 3,
    "Manufacturer": "Siemens",
    "ManufacturersModelName": "TrioTim",
    "Modality": "MR",
    "PartialFourier": 1,
    "PatientPosition": "HFS",
    "PercentPhaseFOV": 100,
    "PhaseEncodingDirection": "j-",
    "PhaseEncodingSteps": 64,
    "PhaseResolution": 1,
    "PixelBandwidth": 1905,
    "ProcedureStepDescription": "head_GREENE",
    "ProtocolName": "ep2d_bold_feedback_rest",
    "PulseSequenceDetails": "%SiemensSeq%_ep2d_bold",
    "ReceiveCoilName": "HeadMatrix",
    "ReconMatrixPE": 64,
    "RepetitionTime": 2.5,
    "SAR": 0.207246,
    "ScanOptions": "FS",
    "ScanningSequence": "EP",
    "SequenceName": "_epfid2d1_64",
    "SequenceVariant": "SK",
    "SeriesDescription": "ep2d_bold_feedback_rest",
    "SeriesNumber": 11,
    "ShimSetting": [
      -204,
      -19532,
      8022,
      129,
      150,
      -454,
      -4,
      -77
    ],
    "SliceThickness": 4,
    "SliceTiming": [
      1.255,
      0,
      1.3325,
      0.0775,
      1.41,
      0.155,
      1.49,
      0.235,
      1.5675,
      0.3125,
      1.645,
      0.39,
      1.725,
      0.47,
      1.8025,
      0.5475,
      1.8825,
      0.6275,
      1.96,
      0.705,
      2.0375,
      0.7825,
      2.1175,
      0.8625,
      2.195,
      0.94,
      2.2725,
      1.0175,
      2.3525,
      1.0975,
      2.43,
      1.175
    ],
    "SoftwareVersions": "syngo_MR_B17",
    "SpacingBetweenSlices": 4,
    "StationName": "MRC35177",
    "TaskName": "restfixationfixed",
    "TotalReadoutTime": 0.0371701,
    "TxRefAmp": 322.616,
    "dataset": "ds000256",
    "dcmmeta_affine": [
      [
        -3.9907803535461426,
        0.25573617219924927,
        0.0909426361322403,
        123.0160903930664
      ],
      [
        0.24287596344947815,
        3.962928295135498,
        -0.486014723777771,
        -127.98190307617188
      ],
      [
        0.12117267400026321,
        0.4793725907802582,
        3.9693222045898438,
        -75.53914642333984
      ],
      [
        0.0,
        0.0,
        0.0,
        1.0
      ]
    ],
    "dcmmeta_reorient_transform": [
      [
        0.0,
        -1.0,
        0.0,
        63.0
      ],
      [
        1.0,
        0.0,
        0.0,
        0.0
      ],
      [
        0.0,
        0.0,
        1.0,
        0.0
      ],
      [
        0.0,
        0.0,
        0.0,
        1.0
      ]
    ],
    "dcmmeta_shape": [
      64,
      64,
      32,
      164
    ],
    "dcmmeta_slice_dim": 2,
    "dcmmeta_version": 0.6,
    "global": {
      "const": {
        "AccessionNumber": ".",
        "AcquisitionMatrix": [
          64,
          0,
          0,
          64
        ],
        "AngioFlag": "N",
        "BitsAllocated": 16,
        "BitsStored": 12,
        "BodyPartExamined": "HEAD",
        "Columns": 384,
        "DeidentificationMethodCodeSequence": [
          {
            "CodeMeaning": "XNAT Edit Script",
            "CodeValue": "625500",
            "CodingSchemeDesignator": "XNAT",
            "CodingSchemeVersion": "0.1"
          }
        ],
        "EchoNumbers": 1,
        "EchoTime": 27.0,
        "EchoTrainLength": 1,
        "FlipAngle": 90.0,
        "HighBit": 11,
        "ImageOrientationPatient": [
          0.99769510776383,
          -0.060718991022,
          0.03029316875786,
          0.06393404209433,
          0.99073208232188,
          -0.1198431446501
        ],
        "ImagePositionPatient": [
          -818.57012852211,
          -716.89095949855,
          11.973310318257
        ],
        "ImageType": [
          "ORIGINAL",
          "PRIMARY",
          "M",
          "ND",
          "NORM",
          "MOSAIC"
        ],
        "ImagedNucleus": "1H",
        "ImagingFrequency": 123.25585,
        "InPlanePhaseEncodingDirection": "COL",
        "MRAcquisitionType": "2D",
        "MagneticFieldStrength": 3.0,
        "Manufacturer": "SIEMENS",
        "ManufacturerModelName": "TrioTim",
        "Modality": "MR",
        "NumberOfAverages": 1.0,
        "NumberOfPhaseEncodingSteps": 64,
        "PercentPhaseFieldOfView": 100.0,
        "PercentSampling": 100.0,
        "PerformedProcedureStepStartTime": "180037.281000",
        "PhotometricInterpretation": "MONOCHROME2",
        "PixelBandwidth": 1905.0,
        "PixelRepresentation": 0,
        "PixelSpacing": [
          4.0,
          4.0
        ],
        "PositionReferenceIndicator": "",
        "ProtocolName": "ep2d_bold_feedback_rest",
        "RepetitionTime": 2500.0,
        "Rows": 384,
        "SAR": 0.20724594892323,
        "SamplesPerPixel": 1,
        "ScanOptions": "FS",
        "ScanningSequence": "EP",
        "SequenceName": "*epfid2d1_64",
        "SequenceVariant": "SK",
        "SeriesDescription": "ep2d_bold_feedback_rest",
        "SeriesNumber": 11,
        "SeriesTime": "184937.484000",
        "SliceLocation": -56.612679146107,
        "SliceThickness": 4.0,
        "SmallestImagePixelValue": 0,
        "SoftwareVersions": "syngo MR B17",
        "SpacingBetweenSlices": 3.9999999528551,
        "SpecificCharacterSet": "ISO_IR 100",
        "StudyID": "1",
        "StudyTime": "180037.218000",
        "TransmitCoilName": "Body",
        "VariableFlipAngleFlag": "N",
        "WindowCenterWidthExplanation": "Algo1",
        "dBdt": 0.0
      },
      "slices": {}
    },
    "modality": "bold",
    "subject_id": "CTS213",
    "task_id": "restfixationfixed",
    "time": {
      "samples": {
        "AcquisitionNumber": [
          1,
          2,
          3,
          4,
          5,
          6,
          7,
          8,
          9,
          10,
          11,
          12,
          13,
          14,
          15,
          16,
          17,
          18,
          19,
          20,
          21,
          22,
          23,
          24,
          25,
          26,
          27,
          28,
          29,
          30,
          31,
          32,
          33,
          34,
          35,
          36,
          37,
          38,
          39,
          40,
          41,
          42,
          43,
          44,
          45,
          46,
          47,
          48,
          49,
          50,
          51,
          52,
          53,
          54,
          55,
          56,
          57,
          58,
          59,
          60,
          61,
          62,
          63,
          64,
          65,
          66,
          67,
          68,
          69,
          70,
          71,
          72,
          73,
          74,
          75,
          76,
          77,
          78,
          79,
          80,
          81,
          82,
          83,
          84,
          85,
          86,
          87,
          88,
          89,
          90,
          91,
          92,
          93,
          94,
          95,
          96,
          97,
          98,
          99,
          100,
          101,
          102,
          103,
          104,
          105,
          106,
          107,
          108,
          109,
          110,
          111,
          112,
          113,
          114,
          115,
          116,
          117,
          118,
          119,
          120,
          121,
          122,
          123,
          124,
          125,
          126,
          127,
          128,
          129,
          130,
          131,
          132,
          133,
          134,
          135,
          136,
          137,
          138,
          139,
          140,
          141,
          142,
          143,
          144,
          145,
          146,
          147,
          148,
          149,
          150,
          151,
          152,
          153,
          154,
          155,
          156,
          157,
          158,
          159,
          160,
          161,
          162,
          163,
          164
        ],
        "AcquisitionTime": [
          "184935.672500",
          "184938.182500",
          "184940.692500",
          "184943.202500",
          "184945.712500",
          "184948.222500",
          "184950.732500",
          "184953.242500",
          "184955.752500",
          "184958.262500",
          "185000.772500",
          "185003.282500",
          "185005.792500",
          "185008.302500",
          "185010.812500",
          "185013.322500",
          "185015.832500",
          "185018.342500",
          "185020.852500",
          "185023.362500",
          "185025.872500",
          "185028.382500",
          "185030.892500",
          "185033.402500",
          "185035.912500",
          "185038.422500",
          "185040.932500",
          "185043.442500",
          "185045.952500",
          "185048.462500",
          "185050.972500",
          "185053.482500",
          "185055.992500",
          "185058.502500",
          "185101.012500",
          "185103.522500",
          "185106.032500",
          "185108.542500",
          "185111.052500",
          "185113.562500",
          "185116.072500",
          "185118.582500",
          "185121.092500",
          "185123.602500",
          "185126.112500",
          "185128.622500",
          "185131.132500",
          "185133.642500",
          "185136.152500",
          "185138.662500",
          "185141.172500",
          "185143.682500",
          "185146.192500",
          "185148.702500",
          "185151.212500",
          "185153.722500",
          "185156.232500",
          "185158.742500",
          "185201.252500",
          "185203.765000",
          "185206.275000",
          "185208.785000",
          "185211.295000",
          "185213.805000",
          "185216.315000",
          "185218.825000",
          "185221.335000",
          "185223.845000",
          "185226.355000",
          "185228.865000",
          "185231.375000",
          "185233.885000",
          "185236.395000",
          "185238.905000",
          "185241.415000",
          "185243.925000",
          "185246.435000",
          "185248.945000",
          "185251.455000",
          "185253.965000",
          "185256.475000",
          "185258.985000",
          "185301.495000",
          "185304.005000",
          "185306.515000",
          "185309.025000",
          "185311.535000",
          "185314.045000",
          "185316.555000",
          "185319.065000",
          "185321.575000",
          "185324.085000",
          "185326.595000",
          "185329.105000",
          "185331.615000",
          "185334.125000",
          "185336.635000",
          "185339.145000",
          "185341.655000",
          "185344.165000",
          "185346.675000",
          "185349.185000",
          "185351.695000",
          "185354.205000",
          "185356.715000",
          "185359.225000",
          "185401.735000",
          "185404.245000",
          "185406.755000",
          "185409.265000",
          "185411.775000",
          "185414.285000",
          "185416.795000",
          "185419.305000",
          "185421.815000",
          "185424.325000",
          "185426.835000",
          "185429.345000",
          "185431.855000",
          "185434.365000",
          "185436.875000",
          "185439.387500",
          "185441.897500",
          "185444.407500",
          "185446.917500",
          "185449.427500",
          "185451.937500",
          "185454.447500",
          "185456.957500",
          "185459.467500",
          "185501.977500",
          "185504.487500",
          "185506.997500",
          "185509.507500",
          "185512.017500",
          "185514.527500",
          "185517.037500",
          "185519.547500",
          "185522.057500",
          "185524.567500",
          "185527.077500",
          "185529.587500",
          "185532.097500",
          "185534.607500",
          "185537.117500",
          "185539.627500",
          "185542.137500",
          "185544.647500",
          "185547.157500",
          "185549.667500",
          "185552.177500",
          "185554.687500",
          "185557.197500",
          "185559.707500",
          "185602.217500",
          "185604.727500",
          "185607.237500",
          "185609.747500",
          "185612.257500",
          "185614.767500",
          "185617.277500",
          "185619.787500",
          "185622.297500",
          "185624.807500"
        ],
        "ContentTime": [
          "184937.484000",
          "184939.984000",
          "184942.484000",
          "184944.984000",
          "184947.484000",
          "184949.984000",
          "184952.484000",
          "184954.984000",
          "184957.484000",
          "184959.984000",
          "185002.484000",
          "185004.984000",
          "185007.484000",
          "185009.984000",
          "185012.484000",
          "185014.984000",
          "185017.484000",
          "185019.984000",
          "185022.484000",
          "185024.984000",
          "185027.484000",
          "185029.984000",
          "185032.484000",
          "185034.984000",
          "185037.484000",
          "185039.984000",
          "185042.484000",
          "185044.984000",
          "185047.484000",
          "185049.984000",
          "185052.484000",
          "185054.984000",
          "185057.484000",
          "185059.984000",
          "185102.484000",
          "185104.984000",
          "185107.484000",
          "185109.984000",
          "185112.484000",
          "185114.984000",
          "185117.484000",
          "185119.984000",
          "185122.484000",
          "185124.984000",
          "185127.484000",
          "185129.984000",
          "185132.484000",
          "185134.984000",
          "185137.484000",
          "185139.984000",
          "185142.484000",
          "185144.984000",
          "185147.484000",
          "185149.984000",
          "185152.484000",
          "185154.984000",
          "185157.484000",
          "185159.984000",
          "185202.484000",
          "185204.984000",
          "185207.484000",
          "185209.984000",
          "185212.484000",
          "185214.984000",
          "185217.484000",
          "185219.984000",
          "185222.484000",
          "185224.984000",
          "185227.484000",
          "185229.984000",
          "185232.484000",
          "185234.984000",
          "185237.484000",
          "185239.984000",
          "185242.484000",
          "185244.984000",
          "185247.484000",
          "185249.984000",
          "185252.484000",
          "185254.984000",
          "185257.484000",
          "185259.984000",
          "185302.484000",
          "185304.984000",
          "185307.484000",
          "185309.984000",
          "185312.484000",
          "185314.984000",
          "185317.484000",
          "185319.984000",
          "185322.484000",
          "185324.984000",
          "185327.484000",
          "185329.984000",
          "185332.484000",
          "185334.984000",
          "185337.484000",
          "185339.984000",
          "185342.484000",
          "185344.984000",
          "185347.484000",
          "185349.984000",
          "185352.484000",
          "185354.984000",
          "185357.484000",
          "185359.984000",
          "185402.484000",
          "185404.984000",
          "185407.484000",
          "185409.984000",
          "185412.484000",
          "185414.984000",
          "185417.484000",
          "185419.984000",
          "185422.484000",
          "185424.984000",
          "185427.484000",
          "185429.984000",
          "185432.484000",
          "185434.984000",
          "185437.484000",
          "185439.984000",
          "185442.484000",
          "185444.984000",
          "185447.484000",
          "185449.984000",
          "185452.484000",
          "185454.984000",
          "185457.484000",
          "185459.984000",
          "185502.484000",
          "185504.984000",
          "185507.484000",
          "185509.984000",
          "185512.484000",
          "185514.984000",
          "185517.484000",
          "185519.984000",
          "185522.484000",
          "185524.984000",
          "185527.484000",
          "185529.984000",
          "185532.484000",
          "185534.984000",
          "185537.484000",
          "185539.984000",
          "185542.484000",
          "185544.984000",
          "185547.484000",
          "185549.984000",
          "185552.484000",
          "185554.984000",
          "185557.484000",
          "185559.984000",
          "185602.484000",
          "185604.984000",
          "185607.484000",
          "185609.984000",
          "185612.484000",
          "185614.984000",
          "185617.484000",
          "185619.984000",
          "185622.484000",
          "185624.812000"
        ],
        "InstanceCreationTime": [
          "184937.484000",
          "184939.984000",
          "184942.484000",
          "184944.984000",
          "184947.484000",
          "184949.984000",
          "184952.484000",
          "184954.984000",
          "184957.484000",
          "184959.984000",
          "185002.484000",
          "185004.984000",
          "185007.484000",
          "185009.984000",
          "185012.484000",
          "185014.984000",
          "185017.484000",
          "185019.984000",
          "185022.484000",
          "185024.984000",
          "185027.484000",
          "185029.984000",
          "185032.484000",
          "185034.984000",
          "185037.484000",
          "185039.984000",
          "185042.484000",
          "185044.984000",
          "185047.484000",
          "185049.984000",
          "185052.484000",
          "185054.984000",
          "185057.484000",
          "185059.984000",
          "185102.484000",
          "185104.984000",
          "185107.484000",
          "185109.984000",
          "185112.484000",
          "185114.984000",
          "185117.484000",
          "185119.984000",
          "185122.484000",
          "185124.984000",
          "185127.484000",
          "185129.984000",
          "185132.484000",
          "185134.984000",
          "185137.484000",
          "185139.984000",
          "185142.484000",
          "185144.984000",
          "185147.484000",
          "185149.984000",
          "185152.484000",
          "185154.984000",
          "185157.484000",
          "185159.984000",
          "185202.484000",
          "185204.984000",
          "185207.484000",
          "185209.984000",
          "185212.484000",
          "185214.984000",
          "185217.484000",
          "185219.984000",
          "185222.484000",
          "185224.984000",
          "185227.484000",
          "185229.984000",
          "185232.484000",
          "185234.984000",
          "185237.484000",
          "185239.984000",
          "185242.484000",
          "185244.984000",
          "185247.484000",
          "185249.984000",
          "185252.484000",
          "185254.984000",
          "185257.484000",
          "185259.984000",
          "185302.484000",
          "185304.984000",
          "185307.484000",
          "185309.984000",
          "185312.484000",
          "185314.984000",
          "185317.484000",
          "185319.984000",
          "185322.484000",
          "185324.984000",
          "185327.484000",
          "185329.984000",
          "185332.484000",
          "185334.984000",
          "185337.484000",
          "185339.984000",
          "185342.484000",
          "185344.984000",
          "185347.484000",
          "185349.984000",
          "185352.484000",
          "185354.984000",
          "185357.484000",
          "185359.984000",
          "185402.484000",
          "185404.984000",
          "185407.484000",
          "185409.984000",
          "185412.484000",
          "185414.984000",
          "185417.484000",
          "185419.984000",
          "185422.484000",
          "185424.984000",
          "185427.484000",
          "185429.984000",
          "185432.484000",
          "185434.984000",
          "185437.484000",
          "185439.984000",
          "185442.484000",
          "185444.984000",
          "185447.484000",
          "185449.984000",
          "185452.484000",
          "185454.984000",
          "185457.484000",
          "185459.984000",
          "185502.484000",
          "185504.984000",
          "185507.484000",
          "185509.984000",
          "185512.484000",
          "185514.984000",
          "185517.484000",
          "185519.984000",
          "185522.484000",
          "185524.984000",
          "185527.484000",
          "185529.984000",
          "185532.484000",
          "185534.984000",
          "185537.484000",
          "185539.984000",
          "185542.484000",
          "185544.984000",
          "185547.484000",
          "185549.984000",
          "185552.484000",
          "185554.984000",
          "185557.484000",
          "185559.984000",
          "185602.484000",
          "185604.984000",
          "185607.484000",
          "185609.984000",
          "185612.484000",
          "185614.984000",
          "185617.484000",
          "185619.984000",
          "185622.484000",
          "185624.812000"
        ],
        "InstanceNumber": [
          1,
          2,
          3,
          4,
          5,
          6,
          7,
          8,
          9,
          10,
          11,
          12,
          13,
          14,
          15,
          16,
          17,
          18,
          19,
          20,
          21,
          22,
          23,
          24,
          25,
          26,
          27,
          28,
          29,
          30,
          31,
          32,
          33,
          34,
          35,
          36,
          37,
          38,
          39,
          40,
          41,
          42,
          43,
          44,
          45,
          46,
          47,
          48,
          49,
          50,
          51,
          52,
          53,
          54,
          55,
          56,
          57,
          58,
          59,
          60,
          61,
          62,
          63,
          64,
          65,
          66,
          67,
          68,
          69,
          70,
          71,
          72,
          73,
          74,
          75,
          76,
          77,
          78,
          79,
          80,
          81,
          82,
          83,
          84,
          85,
          86,
          87,
          88,
          89,
          90,
          91,
          92,
          93,
          94,
          95,
          96,
          97,
          98,
          99,
          100,
          101,
          102,
          103,
          104,
          105,
          106,
          107,
          108,
          109,
          110,
          111,
          112,
          113,
          114,
          115,
          116,
          117,
          118,
          119,
          120,
          121,
          122,
          123,
          124,
          125,
          126,
          127,
          128,
          129,
          130,
          131,
          132,
          133,
          134,
          135,
          136,
          137,
          138,
          139,
          140,
          141,
          142,
          143,
          144,
          145,
          146,
          147,
          148,
          149,
          150,
          151,
          152,
          153,
          154,
          155,
          156,
          157,
          158,
          159,
          160,
          161,
          162,
          163,
          164
        ],
        "LargestImagePixelValue": [
          1038,
          938,
          930,
          920,
          981,
          959,
          989,
          905,
          937,
          946,
          1008,
          925,
          974,
          935,
          1054,
          905,
          911,
          915,
          924,
          906,
          969,
          965,
          923,
          931,
          935,
          935,
          899,
          927,
          929,
          923,
          929,
          935,
          934,
          1024,
          1009,
          1026,
          946,
          922,
          931,
          920,
          915,
          923,
          923,
          903,
          918,
          924,
          911,
          905,
          921,
          903,
          909,
          911,
          938,
          938,
          985,
          920,
          914,
          1002,
          963,
          1003,
          992,
          910,
          954,
          967,
          992,
          914,
          1000,
          963,
          903,
          934,
          907,
          903,
          977,
          940,
          957,
          908,
          1011,
          892,
          1038,
          902,
          895,
          888,
          888,
          902,
          957,
          929,
          978,
          986,
          914,
          962,
          896,
          894,
          1009,
          912,
          957,
          1028,
          917,
          928,
          1006,
          910,
          885,
          982,
          931,
          887,
          896,
          909,
          924,
          955,
          982,
          908,
          903,
          924,
          902,
          897,
          897,
          984,
          921,
          889,
          909,
          950,
          905,
          906,
          909,
          907,
          918,
          912,
          910,
          911,
          952,
          921,
          912,
          976,
          967,
          938,
          908,
          908,
          910,
          901,
          913,
          917,
          969,
          900,
          908,
          906,
          950,
          942,
          913,
          943,
          926,
          909,
          933,
          907,
          935,
          963,
          915,
          927,
          903,
          939,
          908,
          909,
          931,
          936,
          916,
          902
        ],
        "WindowCenter": [
          492.0,
          489.0,
          490.0,
          490.0,
          491.0,
          490.0,
          491.0,
          490.0,
          491.0,
          489.0,
          491.0,
          490.0,
          489.0,
          491.0,
          492.0,
          489.0,
          490.0,
          491.0,
          491.0,
          490.0,
          491.0,
          492.0,
          490.0,
          489.0,
          489.0,
          491.0,
          490.0,
          489.0,
          491.0,
          489.0,
          489.0,
          490.0,
          490.0,
          491.0,
          490.0,
          491.0,
          490.0,
          490.0,
          490.0,
          490.0,
          489.0,
          491.0,
          490.0,
          490.0,
          491.0,
          489.0,
          491.0,
          490.0,
          490.0,
          491.0,
          488.0,
          488.0,
          489.0,
          488.0,
          490.0,
          489.0,
          491.0,
          491.0,
          491.0,
          489.0,
          491.0,
          490.0,
          490.0,
          489.0,
          488.0,
          489.0,
          491.0,
          490.0,
          490.0,
          490.0,
          490.0,
          489.0,
          491.0,
          490.0,
          489.0,
          489.0,
          489.0,
          489.0,
          490.0,
          487.0,
          488.0,
          487.0,
          488.0,
          489.0,
          490.0,
          489.0,
          491.0,
          491.0,
          489.0,
          490.0,
          489.0,
          489.0,
          490.0,
          489.0,
          489.0,
          491.0,
          489.0,
          489.0,
          490.0,
          490.0,
          490.0,
          490.0,
          488.0,
          488.0,
          489.0,
          487.0,
          489.0,
          490.0,
          490.0,
          489.0,
          489.0,
          491.0,
          489.0,
          490.0,
          488.0,
          491.0,
          491.0,
          490.0,
          490.0,
          489.0,
          488.0,
          487.0,
          489.0,
          489.0,
          489.0,
          489.0,
          490.0,
          489.0,
          490.0,
          489.0,
          491.0,
          488.0,
          489.0,
          490.0,
          489.0,
          490.0,
          490.0,
          489.0,
          490.0,
          489.0,
          489.0,
          491.0,
          489.0,
          490.0,
          490.0,
          489.0,
          488.0,
          488.0,
          490.0,
          490.0,
          490.0,
          491.0,
          487.0,
          490.0,
          489.0,
          490.0,
          488.0,
          488.0,
