{
  "aor": 0.010433475609756096,
  "aqi": 0.028700212256097563,
  "bids_meta": {
    "AcquisitionMatrixPE": 64,
    "AcquisitionNumber": 1,
    "AcquisitionTime": "13:53:22.757500",
    "BandwidthPerPixelPhaseEncode": 26.483,
    "BaseResolution": 64,
    "BodyPartExamined": "HEAD",
    "CogAtlasID": "TODO",
    "ConversionSoftware": "dcm2niix",
    "ConversionSoftwareVersion": "v1.0.20171017 GCC6.3.0",
    "DerivedVendorReportedEchoSpacing": 0.000590001,
    "DeviceSerialNumber": "35177",
    "DwellTime": 4.1e-06,
    "EchoTime": 0.027,
    "EffectiveEchoSpacing": 0.000590001,
    "FlipAngle": 90,
    "ImageOrientationPatientDICOM": [
      0.994855,
      0.0319663,
      -0.0961295,
      -0.020666,
      0.992996,
      0.116329
    ],
    "ImageType": [
      "ORIGINAL",
      "PRIMARY",
      "M",
      "ND",
      "NORM",
      "MOSAIC"
    ],
    "InPlanePhaseEncodingDirectionDICOM": "COL",
    "InstitutionAddress": "Scott_Ave._4525_St._Louis_MO_US_63110",
    "InstitutionName": "Washington_University",
    "InstitutionalDepartmentName": "Department",
    "MRAcquisitionType": "2D",
    "MagneticFieldStrength": 3,
    "Manufacturer": "Siemens",
    "ManufacturersModelName": "TrioTim",
    "Modality": "MR",
    "PartialFourier": 1,
    "PatientPosition": "HFS",
    "PercentPhaseFOV": 100,
    "PhaseEncodingDirection": "j-",
    "PhaseEncodingSteps": 64,
    "PhaseResolution": 1,
    "PixelBandwidth": 1905,
    "ProcedureStepDescription": "head_GREENE",
    "ProtocolName": "ep2d_bold_rest1",
    "PulseSequenceDetails": "%SiemensSeq%_ep2d_bold",
    "ReceiveCoilName": "HeadMatrix",
    "ReconMatrixPE": 64,
    "RepetitionTime": 2.5,
    "SAR": 0.129669,
    "ScanOptions": "FS",
    "ScanningSequence": "EP",
    "SequenceName": "_epfid2d1_64",
    "SequenceVariant": "SK",
    "SeriesDescription": "ep2d_bold_rest1",
    "SeriesNumber": 10,
    "ShimSetting": [
      -322,
      -19542,
      7963,
      277,
      -42,
      -397,
      482,
      138
    ],
    "SliceThickness": 4,
    "SliceTiming": [
      1.2525,
      0,
      1.3325,
      0.0775,
      1.41,
      0.155,
      1.49,
      0.235,
      1.5675,
      0.3125,
      1.645,
      0.39,
      1.725,
      0.47,
      1.8025,
      0.5475,
      1.88,
      0.625,
      1.96,
      0.705,
      2.0375,
      0.7825,
      2.115,
      0.8625,
      2.195,
      0.94,
      2.2725,
      1.0175,
      2.3525,
      1.0975,
      2.43,
      1.175
    ],
    "SoftwareVersions": "syngo_MR_B17",
    "SpacingBetweenSlices": 4,
    "StationName": "MRC35177",
    "TaskName": "restbaseline",
    "TotalReadoutTime": 0.0371701,
    "TxRefAmp": 348.397,
    "dataset": "ds000256",
    "dcmmeta_affine": [
      [
        -3.979421615600586,
        -0.08266405016183853,
        -0.3966991603374481,
        130.1614532470703
      ],
      [
        -0.12786512076854706,
        3.971982717514038,
        0.4549771249294281,
        -136.68231201171875
      ],
      [
        -0.38451796770095825,
        -0.4653174579143524,
        3.954190731048584,
        -8.43017864227295
      ],
      [
        0.0,
        0.0,
        0.0,
        1.0
      ]
    ],
    "dcmmeta_reorient_transform": [
      [
        0.0,
        -1.0,
        0.0,
        63.0
      ],
      [
        1.0,
        0.0,
        0.0,
        0.0
      ],
      [
        0.0,
        0.0,
        1.0,
        0.0
      ],
      [
        0.0,
        0.0,
        0.0,
        1.0
      ]
    ],
    "dcmmeta_shape": [
      64,
      64,
      32,
      164
    ],
    "dcmmeta_slice_dim": 2,
    "dcmmeta_version": 0.6,
    "global": {
      "const": {
        "AccessionNumber": ".",
        "AcquisitionMatrix": [
          64,
          0,
          0,
          64
        ],
        "AngioFlag": "N",
        "BitsAllocated": 16,
        "BitsStored": 12,
        "BodyPartExamined": "HEAD",
        "Columns": 384,
        "DeidentificationMethodCodeSequence": [
          {
            "CodeMeaning": "XNAT Edit Script",
            "CodeValue": "625500",
            "CodingSchemeDesignator": "XNAT",
            "CodingSchemeVersion": "0.1"
          }
        ],
        "EchoNumbers": 1,
        "EchoTime": 27.0,
        "EchoTrainLength": 1,
        "FlipAngle": 90.0,
        "HighBit": 11,
        "ImageOrientationPatient": [
          0.99485540511068,
          0.03196627955712,
          -0.096129495439,
          -0.0206660121588,
          0.99299566701306,
          0.11632936531563
        ],
        "ImagePositionPatient": [
          -748.43482938503,
          -769.52823880257,
          -50.673095554786
        ],
        "ImageType": [
          "ORIGINAL",
          "PRIMARY",
          "M",
          "ND",
          "NORM",
          "MOSAIC"
        ],
        "ImagedNucleus": "1H",
        "ImagingFrequency": 123.255187,
        "InPlanePhaseEncodingDirection": "COL",
        "MRAcquisitionType": "2D",
        "MagneticFieldStrength": 3.0,
        "Manufacturer": "SIEMENS",
        "ManufacturerModelName": "TrioTim",
        "Modality": "MR",
        "NumberOfAverages": 1.0,
        "NumberOfPhaseEncodingSteps": 64,
        "PercentPhaseFieldOfView": 100.0,
        "PercentSampling": 100.0,
        "PerformedProcedureStepStartTime": "133402.968000",
        "PhotometricInterpretation": "MONOCHROME2",
        "PixelBandwidth": 1905.0,
        "PixelRepresentation": 0,
        "PixelSpacing": [
          4.0,
          4.0
        ],
        "PositionReferenceIndicator": "",
        "ProtocolName": "ep2d_bold_rest1",
        "RepetitionTime": 2500.0,
        "Rows": 384,
        "SAR": 0.12966852745132,
        "SamplesPerPixel": 1,
        "ScanOptions": "FS",
        "ScanningSequence": "EP",
        "SequenceName": "*epfid2d1_64",
        "SequenceVariant": "SK",
        "SeriesDescription": "ep2d_bold_rest1",
        "SeriesNumber": 10,
        "SeriesTime": "135324.968000",
        "SliceLocation": -36.789200855188,
        "SliceThickness": 4.0,
        "SmallestImagePixelValue": 0,
        "SoftwareVersions": "syngo MR B17",
        "SpacingBetweenSlices": 3.9999998837473,
        "SpecificCharacterSet": "ISO_IR 100",
        "StudyID": "1",
        "StudyTime": "133402.921000",
        "TransmitCoilName": "Body",
        "VariableFlipAngleFlag": "N",
        "WindowCenterWidthExplanation": "Algo1",
        "dBdt": 0.0
      },
      "slices": {}
    },
    "modality": "bold",
    "subject_id": "CTS201",
    "task_id": "restbaseline",
    "time": {
      "samples": {
        "AcquisitionNumber": [
          1,
          2,
          3,
          4,
          5,
          6,
          7,
          8,
          9,
          10,
          11,
          12,
          13,
          14,
          15,
          16,
          17,
          18,
          19,
          20,
          21,
          22,
          23,
          24,
          25,
          26,
          27,
          28,
          29,
          30,
          31,
          32,
          33,
          34,
          35,
          36,
          37,
          38,
          39,
          40,
          41,
          42,
          43,
          44,
          45,
          46,
          47,
          48,
          49,
          50,
          51,
          52,
          53,
          54,
          55,
          56,
          57,
          58,
          59,
          60,
          61,
          62,
          63,
          64,
          65,
          66,
          67,
          68,
          69,
          70,
          71,
          72,
          73,
          74,
          75,
          76,
          77,
          78,
          79,
          80,
          81,
          82,
          83,
          84,
          85,
          86,
          87,
          88,
          89,
          90,
          91,
          92,
          93,
          94,
          95,
          96,
          97,
          98,
          99,
          100,
          101,
          102,
          103,
          104,
          105,
          106,
          107,
          108,
          109,
          110,
          111,
          112,
          113,
          114,
          115,
          116,
          117,
          118,
          119,
          120,
          121,
          122,
          123,
          124,
          125,
          126,
          127,
          128,
          129,
          130,
          131,
          132,
          133,
          134,
          135,
          136,
          137,
          138,
          139,
          140,
          141,
          142,
          143,
          144,
          145,
          146,
          147,
          148,
          149,
          150,
          151,
          152,
          153,
          154,
          155,
          156,
          157,
          158,
          159,
          160,
          161,
          162,
          163,
          164
        ],
        "AcquisitionTime": [
          "135322.757500",
          "135325.267500",
          "135327.777500",
          "135330.287500",
          "135332.797500",
          "135335.310000",
          "135337.820000",
          "135340.330000",
          "135342.840000",
          "135345.350000",
          "135347.860000",
          "135350.370000",
          "135352.880000",
          "135355.390000",
          "135357.900000",
          "135400.410000",
          "135402.920000",
          "135405.430000",
          "135407.940000",
          "135410.450000",
          "135412.960000",
          "135415.470000",
          "135417.980000",
          "135420.490000",
          "135423.000000",
          "135425.510000",
          "135428.020000",
          "135430.530000",
          "135433.040000",
          "135435.550000",
          "135438.060000",
          "135440.570000",
          "135443.080000",
          "135445.590000",
          "135448.100000",
          "135450.610000",
          "135453.120000",
          "135455.630000",
          "135458.140000",
          "135500.650000",
          "135503.160000",
          "135505.670000",
          "135508.180000",
          "135510.690000",
          "135513.200000",
          "135515.710000",
          "135518.220000",
          "135520.730000",
          "135523.240000",
          "135525.750000",
          "135528.260000",
          "135530.770000",
          "135533.280000",
          "135535.790000",
          "135538.300000",
          "135540.810000",
          "135543.320000",
          "135545.830000",
          "135548.340000",
          "135550.850000",
          "135553.360000",
          "135555.870000",
          "135558.380000",
          "135600.890000",
          "135603.400000",
          "135605.910000",
          "135608.420000",
          "135610.932500",
          "135613.442500",
          "135615.952500",
          "135618.462500",
          "135620.972500",
          "135623.482500",
          "135625.992500",
          "135628.502500",
          "135631.012500",
          "135633.522500",
          "135636.032500",
          "135638.542500",
          "135641.052500",
          "135643.562500",
          "135646.072500",
          "135648.582500",
          "135651.092500",
          "135653.602500",
          "135656.112500",
          "135658.622500",
          "135701.132500",
          "135703.642500",
          "135706.152500",
          "135708.662500",
          "135711.172500",
          "135713.682500",
          "135716.192500",
          "135718.702500",
          "135721.212500",
          "135723.722500",
          "135726.232500",
          "135728.742500",
          "135731.252500",
          "135733.762500",
          "135736.272500",
          "135738.782500",
          "135741.292500",
          "135743.802500",
          "135746.312500",
          "135748.822500",
          "135751.332500",
          "135753.842500",
          "135756.352500",
          "135758.862500",
          "135801.372500",
          "135803.882500",
          "135806.392500",
          "135808.902500",
          "135811.412500",
          "135813.922500",
          "135816.432500",
          "135818.942500",
          "135821.452500",
          "135823.962500",
          "135826.472500",
          "135828.982500",
          "135831.492500",
          "135834.002500",
          "135836.512500",
          "135839.022500",
          "135841.532500",
          "135844.042500",
          "135846.552500",
          "135849.065000",
          "135851.575000",
          "135854.085000",
          "135856.595000",
          "135859.105000",
          "135901.615000",
          "135904.125000",
          "135906.635000",
          "135909.145000",
          "135911.655000",
          "135914.165000",
          "135916.675000",
          "135919.185000",
          "135921.695000",
          "135924.205000",
          "135926.715000",
          "135929.225000",
          "135931.735000",
          "135934.245000",
          "135936.755000",
          "135939.265000",
          "135941.775000",
          "135944.285000",
          "135946.795000",
          "135949.305000",
          "135951.815000",
          "135954.325000",
          "135956.835000",
          "135959.345000",
          "140001.855000",
          "140004.365000",
          "140006.875000",
          "140009.385000",
          "140011.895000"
        ],
        "ContentTime": [
          "135324.968000",
          "135327.468000",
          "135329.968000",
          "135332.468000",
          "135334.968000",
          "135337.468000",
          "135339.968000",
          "135342.468000",
          "135344.968000",
          "135347.468000",
          "135349.968000",
          "135352.468000",
          "135354.968000",
          "135357.468000",
          "135359.968000",
          "135402.468000",
          "135404.968000",
          "135407.468000",
          "135409.968000",
          "135412.468000",
          "135414.968000",
          "135417.468000",
          "135419.968000",
          "135422.468000",
          "135424.968000",
          "135427.468000",
          "135429.968000",
          "135432.468000",
          "135434.968000",
          "135437.468000",
          "135439.968000",
          "135442.468000",
          "135444.968000",
          "135447.468000",
          "135449.968000",
          "135452.468000",
          "135454.968000",
          "135457.468000",
          "135459.968000",
          "135502.468000",
          "135504.968000",
          "135507.468000",
          "135509.968000",
          "135512.468000",
          "135514.968000",
          "135517.468000",
          "135519.968000",
          "135522.468000",
          "135524.968000",
          "135527.468000",
          "135529.968000",
          "135532.468000",
          "135534.968000",
          "135537.468000",
          "135539.968000",
          "135542.468000",
          "135544.968000",
          "135547.468000",
          "135549.968000",
          "135552.468000",
          "135554.968000",
          "135557.468000",
          "135559.968000",
          "135602.468000",
          "135604.968000",
          "135607.468000",
          "135609.968000",
          "135612.468000",
          "135614.968000",
          "135617.468000",
          "135619.968000",
          "135622.468000",
          "135624.968000",
          "135627.468000",
          "135629.968000",
          "135632.468000",
          "135634.968000",
          "135637.468000",
          "135639.968000",
          "135642.468000",
          "135644.968000",
          "135647.468000",
          "135649.968000",
          "135652.468000",
          "135654.968000",
          "135657.468000",
          "135659.968000",
          "135702.468000",
          "135704.968000",
          "135707.468000",
          "135709.968000",
          "135712.468000",
          "135714.968000",
          "135717.468000",
          "135719.968000",
          "135722.468000",
          "135724.968000",
          "135727.468000",
          "135729.968000",
          "135732.468000",
          "135734.968000",
          "135737.468000",
          "135739.968000",
          "135742.468000",
          "135744.968000",
          "135747.468000",
          "135749.968000",
          "135752.468000",
          "135754.968000",
          "135757.468000",
          "135759.968000",
          "135802.468000",
          "135804.968000",
          "135807.468000",
          "135809.968000",
          "135812.468000",
          "135814.968000",
          "135817.468000",
          "135819.968000",
          "135823.984000",
          "135824.968000",
          "135827.468000",
          "135829.968000",
          "135832.468000",
          "135834.968000",
          "135837.468000",
          "135839.968000",
          "135842.468000",
          "135844.968000",
          "135847.468000",
          "135849.968000",
          "135852.468000",
          "135854.968000",
          "135857.468000",
          "135859.968000",
          "135902.468000",
          "135904.968000",
          "135907.468000",
          "135909.968000",
          "135912.468000",
          "135914.968000",
          "135917.468000",
          "135919.968000",
          "135922.468000",
          "135924.968000",
          "135927.468000",
          "135929.968000",
          "135932.468000",
          "135934.968000",
          "135937.468000",
          "135939.968000",
          "135942.468000",
          "135944.968000",
          "135947.468000",
          "135949.968000",
          "135952.468000",
          "135954.968000",
          "135957.468000",
          "135959.968000",
          "140002.468000",
          "140004.968000",
          "140007.468000",
          "140009.968000",
          "140012.125000"
        ],
        "InstanceCreationTime": [
          "135324.968000",
          "135327.468000",
          "135329.968000",
          "135332.468000",
          "135334.968000",
          "135337.468000",
          "135339.968000",
          "135342.468000",
          "135344.968000",
          "135347.468000",
          "135349.968000",
          "135352.468000",
          "135354.968000",
          "135357.468000",
          "135359.968000",
          "135402.468000",
          "135404.968000",
          "135407.468000",
          "135409.968000",
          "135412.468000",
          "135414.968000",
          "135417.468000",
          "135419.968000",
          "135422.468000",
          "135424.968000",
          "135427.468000",
          "135429.968000",
          "135432.468000",
          "135434.968000",
          "135437.468000",
          "135439.968000",
          "135442.468000",
          "135444.968000",
          "135447.468000",
          "135449.968000",
          "135452.468000",
          "135454.968000",
          "135457.468000",
          "135459.968000",
          "135502.468000",
          "135504.968000",
          "135507.468000",
          "135509.968000",
          "135512.468000",
          "135514.968000",
          "135517.468000",
          "135519.968000",
          "135522.468000",
          "135524.968000",
          "135527.468000",
          "135529.968000",
          "135532.468000",
          "135534.968000",
          "135537.468000",
          "135539.968000",
          "135542.468000",
          "135544.968000",
          "135547.468000",
          "135549.968000",
          "135552.468000",
          "135554.968000",
          "135557.468000",
          "135559.968000",
          "135602.468000",
          "135604.968000",
          "135607.468000",
          "135609.968000",
          "135612.468000",
          "135614.968000",
          "135617.468000",
          "135619.968000",
          "135622.468000",
          "135624.968000",
          "135627.468000",
          "135629.968000",
          "135632.468000",
          "135634.968000",
          "135637.468000",
          "135639.968000",
          "135642.468000",
          "135644.968000",
          "135647.468000",
          "135649.968000",
          "135652.468000",
          "135654.968000",
          "135657.468000",
          "135659.968000",
          "135702.468000",
          "135704.968000",
          "135707.468000",
          "135709.968000",
          "135712.468000",
          "135714.968000",
          "135717.468000",
          "135719.968000",
          "135722.468000",
          "135724.968000",
          "135727.468000",
          "135729.968000",
          "135732.468000",
          "135734.968000",
          "135737.468000",
          "135739.968000",
          "135742.468000",
          "135744.968000",
          "135747.468000",
          "135749.968000",
          "135752.468000",
          "135754.968000",
          "135757.468000",
          "135759.968000",
          "135802.468000",
          "135804.968000",
          "135807.468000",
          "135809.968000",
          "135812.468000",
          "135814.968000",
          "135817.468000",
          "135819.968000",
          "135823.984000",
          "135824.968000",
          "135827.468000",
          "135829.968000",
          "135832.468000",
          "135834.968000",
          "135837.468000",
          "135839.968000",
          "135842.468000",
          "135844.968000",
          "135847.468000",
          "135849.968000",
          "135852.468000",
          "135854.968000",
          "135857.468000",
          "135859.968000",
          "135902.468000",
          "135904.968000",
          "135907.468000",
          "135909.968000",
          "135912.468000",
          "135914.968000",
          "135917.468000",
          "135919.968000",
          "135922.468000",
          "135924.968000",
          "135927.468000",
          "135929.968000",
          "135932.468000",
          "135934.968000",
          "135937.468000",
          "135939.968000",
          "135942.468000",
          "135944.968000",
          "135947.468000",
          "135949.968000",
          "135952.468000",
          "135954.968000",
          "135957.468000",
          "135959.968000",
          "140002.468000",
          "140004.968000",
          "140007.468000",
          "140009.968000",
          "140012.125000"
        ],
        "InstanceNumber": [
          1,
          2,
          3,
          4,
          5,
          6,
          7,
          8,
          9,
          10,
          11,
          12,
          13,
          14,
          15,
          16,
          17,
          18,
          19,
          20,
          21,
          22,
          23,
          24,
          25,
          26,
          27,
          28,
          29,
          30,
          31,
          32,
          33,
          34,
          35,
          36,
          37,
          38,
          39,
          40,
          41,
          42,
          43,
          44,
          45,
          46,
          47,
          48,
          49,
          50,
          51,
          52,
          53,
          54,
          55,
          56,
          57,
          58,
          59,
          60,
          61,
          62,
          63,
          64,
          65,
          66,
          67,
          68,
          69,
          70,
          71,
          72,
          73,
          74,
          75,
          76,
          77,
          78,
          79,
          80,
          81,
          82,
          83,
          84,
          85,
          86,
          87,
          88,
          89,
          90,
          91,
          92,
          93,
          94,
          95,
          96,
          97,
          98,
          99,
          100,
          101,
          102,
          103,
          104,
          105,
          106,
          107,
          108,
          109,
          110,
          111,
          112,
          113,
          114,
          115,
          116,
          117,
          118,
          119,
          120,
          121,
          122,
          123,
          124,
          125,
          126,
          127,
          128,
          129,
          130,
          131,
          132,
          133,
          134,
          135,
          136,
          137,
          138,
          139,
          140,
          141,
          142,
          143,
          144,
          145,
          146,
          147,
          148,
          149,
          150,
          151,
          152,
          153,
          154,
          155,
          156,
          157,
          158,
          159,
          160,
          161,
          162,
          163,
          164
        ],
        "LargestImagePixelValue": [
          1528,
          1492,
          1532,
          1426,
          1460,
          1638,
          1457,
          1532,
          1430,
          1511,
          1387,
          1441,
          1478,
          1690,
          1678,
          1393,
          1550,
          1522,
          1376,
          1425,
          1530,
          1646,
          1566,
          1523,
          1371,
          1476,
          1470,
          1433,
          1635,
          1444,
          1384,
          1521,
          1537,
          1387,
          1665,
          1594,
          1493,
          1625,
          1379,
          1389,
          1376,
          1537,
          1550,
          1574,
          1500,
          1535,
          1515,
          1484,
          1375,
          1374,
          1485,
          1520,
          1554,
          1670,
          1465,
          1439,
          1436,
          1563,
          1444,
          1539,
          1470,
          1648,
          1427,
          1606,
          1546,
          1602,
          1504,
          1400,
          1417,
          1582,
          1568,
          1405,
          1699,
          1439,
          1408,
          1603,
          1366,
          1628,
          1580,
          1557,
          1566,
          1532,
          1545,
          1519,
          1635,
          1517,
          1483,
          1516,
          1582,
          1735,
          1359,
          1581,
          1665,
          1352,
          1385,
          1344,
          1645,
          1574,
          1357,
          1725,
          1358,
          1612,
          1567,
          1527,
          1503,
          1504,
          1482,
          1642,
          1567,
          1528,
          1368,
          1876,
          1343,
          1509,
          1337,
          1484,
          1602,
          1358,
          1497,
          1495,
          1533,
          1922,
          1514,
          1650,
          1369,
          1505,
          1606,
          1450,
          1609,
          1601,
          1493,
          1638,
          1470,
          1379,
          1417,
          1414,
          1576,
          1453,
          1567,
          1501,
          1381,
          1490,
          1457,
          1650,
          1679,
          1492,
          1626,
          1570,
          1474,
          1519,
          1450,
          1639,
          1461,
          1787,
          1619,
          1473,
          1434,
          1489,
          1439,
          1475,
          1423,
          1514,
          1507,
          1486
        ],
        "WindowCenter": [
          644.0,
          645.0,
          643.0,
          644.0,
          645.0,
          644.0,
          644.0,
          644.0,
          645.0,
          644.0,
          645.0,
          644.0,
          646.0,
          644.0,
          643.0,
          643.0,
          642.0,
          644.0,
          644.0,
          643.0,
          643.0,
          644.0,
          644.0,
          643.0,
          644.0,
          641.0,
          644.0,
          644.0,
          643.0,
          643.0,
          642.0,
          644.0,
          644.0,
          643.0,
          644.0,
          642.0,
          643.0,
          643.0,
          643.0,
          642.0,
          642.0,
          642.0,
          643.0,
          644.0,
          642.0,
          642.0,
          643.0,
          638.0,
          643.0,
          643.0,
          643.0,
          642.0,
          643.0,
          644.0,
          643.0,
          642.0,
          644.0,
          643.0,
          642.0,
          642.0,
          643.0,
          642.0,
          644.0,
          644.0,
          643.0,
          642.0,
          644.0,
          644.0,
          644.0,
          645.0,
          644.0,
          641.0,
          643.0,
          642.0,
          644.0,
          642.0,
          644.0,
          643.0,
          642.0,
          644.0,
          643.0,
          643.0,
          644.0,
          643.0,
          638.0,
          645.0,
          639.0,
          633.0,
          645.0,
          644.0,
          643.0,
          645.0,
          643.0,
          639.0,
          644.0,
          644.0,
          645.0,
          643.0,
          639.0,
          643.0,
          638.0,
          640.0,
          644.0,
          644.0,
          643.0,
          640.0,
          645.0,
          644.0,
          638.0,
          640.0,
          641.0,
          644.0,
          642.0,
          641.0,
          643.0,
          644.0,
          645.0,
          645.0,
          646.0,
          644.0,
          645.0,
          646.0,
          644.0,
          645.0,
          643.0,
          643.0,
          644.0,
          637.0,
          639.0,
          644.0,
          633.0,
          643.0,
          641.0,
          636.0,
          642.0,
          643.0,
          645.0,
          642.0,
          637.0,
          638.0,
          642.0,
          638.0,
          640.0,
          636.0,
          644.0,
          643.0,
          642.0,
          644.0,
          643.0,
          644.0,
          646.0,
