{
  "aor": 0.008095609756097561,
  "aqi": 0.032859366463414634,
  "bids_meta": {
    "AcquisitionMatrixPE": 64,
    "AcquisitionNumber": 1,
    "AcquisitionTime": "10:43:58.605000",
    "BandwidthPerPixelPhaseEncode": 26.483,
    "BaseResolution": 64,
    "BodyPartExamined": "HEAD",
    "CogAtlasID": "TODO",
    "ConversionSoftware": "dcm2niix",
    "ConversionSoftwareVersion": "v1.0.20171017 GCC6.3.0",
    "DerivedVendorReportedEchoSpacing": 0.000590001,
    "DeviceSerialNumber": "35177",
    "DwellTime": 4.1e-06,
    "EchoTime": 0.027,
    "EffectiveEchoSpacing": 0.000590001,
    "FlipAngle": 90,
    "ImageOrientationPatientDICOM": [
      0.997441,
      0.0462737,
      0.0545021,
      -0.0487864,
      0.997763,
      0.0457121
    ],
    "ImageType": [
      "ORIGINAL",
      "PRIMARY",
      "M",
      "ND",
      "NORM",
      "MOSAIC"
    ],
    "InPlanePhaseEncodingDirectionDICOM": "COL",
    "InstitutionAddress": "Scott_Ave._4525_St._Louis_MO_US_63110",
    "InstitutionName": "Washington_University",
    "InstitutionalDepartmentName": "Department",
    "MRAcquisitionType": "2D",
    "MagneticFieldStrength": 3,
    "Manufacturer": "Siemens",
    "ManufacturersModelName": "TrioTim",
    "Modality": "MR",
    "PartialFourier": 1,
    "PatientPosition": "HFS",
    "PercentPhaseFOV": 100,
    "PhaseEncodingDirection": "j-",
    "PhaseEncodingSteps": 64,
    "PhaseResolution": 1,
    "PixelBandwidth": 1905,
    "ProcedureStepDescription": "head_GREENE",
    "ProtocolName": "ep2d_bold_ad_rest",
    "PulseSequenceDetails": "%SiemensSeq%_ep2d_bold",
    "ReceiveCoilName": "HeadMatrix",
    "ReconMatrixPE": 64,
    "RepetitionTime": 2.5,
    "SAR": 0.12563,
    "ScanOptions": "FS",
    "ScanningSequence": "EP",
    "SequenceName": "_epfid2d1_64",
    "SequenceVariant": "SK",
    "SeriesDescription": "ep2d_bold_ad_rest",
    "SeriesNumber": 7,
    "ShimSetting": [
      -254,
      -19600,
      7985,
      341,
      -116,
      -521,
      247,
      -47
    ],
    "SliceThickness": 4,
    "SliceTiming": [
      1.255,
      0,
      1.335,
      0.08,
      1.4125,
      0.1575,
      1.49,
      0.2375,
      1.57,
      0.315,
      1.6475,
      0.3925,
      1.7275,
      0.4725,
      1.805,
      0.55,
      1.8825,
      0.6275,
      1.9625,
      0.7075,
      2.04,
      0.785,
      2.1175,
      0.865,
      2.1975,
      0.9425,
      2.275,
      1.02,
      2.355,
      1.1,
      2.4325,
      1.1775
    ],
    "SoftwareVersions": "syngo_MR_B17",
    "SpacingBetweenSlices": 4,
    "StationName": "MRC35177",
    "TaskName": "restfixationadaptive",
    "TotalReadoutTime": 0.0371701,
    "TxRefAmp": 333.738,
    "dataset": "ds000256",
    "dcmmeta_affine": [
      [
        -3.9897634983062744,
        -0.19514571130275726,
        0.20905958116054535,
        138.79893493652344
      ],
      [
        -0.18509480357170105,
        3.9910504817962646,
        0.19301645457744598,
        -127.74984741210938
      ],
      [
        0.21800833940505981,
        -0.1828484684228897,
        3.989868640899658,
        -40.975791931152344
      ],
      [
        0.0,
        0.0,
        0.0,
        1.0
      ]
    ],
    "dcmmeta_reorient_transform": [
      [
        0.0,
        -1.0,
        0.0,
        63.0
      ],
      [
        1.0,
        0.0,
        0.0,
        0.0
      ],
      [
        0.0,
        0.0,
        1.0,
        0.0
      ],
      [
        0.0,
        0.0,
        0.0,
        1.0
      ]
    ],
    "dcmmeta_shape": [
      64,
      64,
      32,
      164
    ],
    "dcmmeta_slice_dim": 2,
    "dcmmeta_version": 0.6,
    "global": {
      "const": {
        "AccessionNumber": ".",
        "AcquisitionMatrix": [
          64,
          0,
          0,
          64
        ],
        "AngioFlag": "N",
        "BitsAllocated": 16,
        "BitsStored": 12,
        "BodyPartExamined": "HEAD",
        "Columns": 384,
        "DeidentificationMethodCodeSequence": [
          {
            "CodeMeaning": "XNAT Edit Script",
            "CodeValue": "625500",
            "CodingSchemeDesignator": "XNAT",
            "CodingSchemeVersion": "0.1"
          }
        ],
        "EchoNumbers": 1,
        "EchoTime": 27.0,
        "EchoTrainLength": 1,
        "FlipAngle": 90.0,
        "HighBit": 11,
        "ImageOrientationPatient": [
          0.99744085909659,
          0.04627370129051,
          0.05450208412099,
          -0.0487864273149,
          0.99776264059869,
          0.04571211584881
        ],
        "ImagePositionPatient": [
          -733.64359659692,
          -791.86959509544,
          -116.63233318301
        ],
        "ImageType": [
          "ORIGINAL",
          "PRIMARY",
          "M",
          "ND",
          "NORM",
          "MOSAIC"
        ],
        "ImagedNucleus": "1H",
        "ImagingFrequency": 123.256213,
        "InPlanePhaseEncodingDirection": "COL",
        "MRAcquisitionType": "2D",
        "MagneticFieldStrength": 3.0,
        "Manufacturer": "SIEMENS",
        "ManufacturerModelName": "TrioTim",
        "Modality": "MR",
        "NumberOfAverages": 1.0,
        "NumberOfPhaseEncodingSteps": 64,
        "PercentPhaseFieldOfView": 100.0,
        "PercentSampling": 100.0,
        "PerformedProcedureStepStartTime": "102513.546000",
        "PhotometricInterpretation": "MONOCHROME2",
        "PixelBandwidth": 1905.0,
        "PixelRepresentation": 0,
        "PixelSpacing": [
          4.0,
          4.0
        ],
        "PositionReferenceIndicator": "",
        "ProtocolName": "ep2d_bold_ad_rest",
        "RepetitionTime": 2500.0,
        "Rows": 384,
        "SAR": 0.12563020719281,
        "SamplesPerPixel": 1,
        "ScanOptions": "FS",
        "ScanningSequence": "EP",
        "SequenceName": "*epfid2d1_64",
        "SequenceVariant": "SK",
        "SeriesDescription": "ep2d_bold_ad_rest",
        "SeriesNumber": 7,
        "SeriesTime": "104400.765000",
        "SliceLocation": -39.782134296903,
        "SliceThickness": 4.0,
        "SmallestImagePixelValue": 0,
        "SoftwareVersions": "syngo MR B17",
        "SpacingBetweenSlices": 4.0000015213,
        "SpecificCharacterSet": "ISO_IR 100",
        "StudyID": "1",
        "StudyTime": "102513.500000",
        "TransmitCoilName": "Body",
        "VariableFlipAngleFlag": "N",
        "WindowCenterWidthExplanation": "Algo1",
        "dBdt": 0.0
      },
      "slices": {}
    },
    "modality": "bold",
    "subject_id": "CTS239",
    "task_id": "restfixationadaptive",
    "time": {
      "samples": {
        "AcquisitionNumber": [
          1,
          2,
          3,
          4,
          5,
          6,
          7,
          8,
          9,
          10,
          11,
          12,
          13,
          14,
          15,
          16,
          17,
          18,
          19,
          20,
          21,
          22,
          23,
          24,
          25,
          26,
          27,
          28,
          29,
          30,
          31,
          32,
          33,
          34,
          35,
          36,
          37,
          38,
          39,
          40,
          41,
          42,
          43,
          44,
          45,
          46,
          47,
          48,
          49,
          50,
          51,
          52,
          53,
          54,
          55,
          56,
          57,
          58,
          59,
          60,
          61,
          62,
          63,
          64,
          65,
          66,
          67,
          68,
          69,
          70,
          71,
          72,
          73,
          74,
          75,
          76,
          77,
          78,
          79,
          80,
          81,
          82,
          83,
          84,
          85,
          86,
          87,
          88,
          89,
          90,
          91,
          92,
          93,
          94,
          95,
          96,
          97,
          98,
          99,
          100,
          101,
          102,
          103,
          104,
          105,
          106,
          107,
          108,
          109,
          110,
          111,
          112,
          113,
          114,
          115,
          116,
          117,
          118,
          119,
          120,
          121,
          122,
          123,
          124,
          125,
          126,
          127,
          128,
          129,
          130,
          131,
          132,
          133,
          134,
          135,
          136,
          137,
          138,
          139,
          140,
          141,
          142,
          143,
          144,
          145,
          146,
          147,
          148,
          149,
          150,
          151,
          152,
          153,
          154,
          155,
          156,
          157,
          158,
          159,
          160,
          161,
          162,
          163,
          164
        ],
        "AcquisitionTime": [
          "104358.605000",
          "104401.115000",
          "104403.625000",
          "104406.135000",
          "104408.645000",
          "104411.155000",
          "104413.665000",
          "104416.175000",
          "104418.687500",
          "104421.197500",
          "104423.707500",
          "104426.217500",
          "104428.727500",
          "104431.237500",
          "104433.747500",
          "104436.257500",
          "104438.767500",
          "104441.277500",
          "104443.787500",
          "104446.297500",
          "104448.807500",
          "104451.317500",
          "104453.827500",
          "104456.337500",
          "104458.847500",
          "104501.357500",
          "104503.867500",
          "104506.377500",
          "104508.887500",
          "104511.397500",
          "104513.907500",
          "104516.417500",
          "104518.927500",
          "104521.437500",
          "104523.947500",
          "104526.457500",
          "104528.967500",
          "104531.477500",
          "104533.987500",
          "104536.497500",
          "104539.007500",
          "104541.517500",
          "104544.027500",
          "104546.537500",
          "104549.047500",
          "104551.557500",
          "104554.067500",
          "104556.577500",
          "104559.087500",
          "104601.597500",
          "104604.107500",
          "104606.617500",
          "104609.127500",
          "104611.637500",
          "104614.147500",
          "104616.657500",
          "104619.167500",
          "104621.677500",
          "104624.187500",
          "104626.697500",
          "104629.207500",
          "104631.717500",
          "104634.227500",
          "104636.737500",
          "104639.247500",
          "104641.757500",
          "104644.267500",
          "104646.777500",
          "104649.287500",
          "104651.797500",
          "104654.310000",
          "104656.820000",
          "104659.330000",
          "104701.840000",
          "104704.350000",
          "104706.860000",
          "104709.370000",
          "104711.880000",
          "104714.390000",
          "104716.900000",
          "104719.410000",
          "104721.920000",
          "104724.430000",
          "104726.940000",
          "104729.450000",
          "104731.960000",
          "104734.470000",
          "104736.980000",
          "104739.490000",
          "104742.000000",
          "104744.510000",
          "104747.020000",
          "104749.530000",
          "104752.040000",
          "104754.550000",
          "104757.060000",
          "104759.570000",
          "104802.080000",
          "104804.590000",
          "104807.100000",
          "104809.610000",
          "104812.120000",
          "104814.630000",
          "104817.140000",
          "104819.650000",
          "104822.160000",
          "104824.670000",
          "104827.180000",
          "104829.690000",
          "104832.200000",
          "104834.710000",
          "104837.220000",
          "104839.730000",
          "104842.240000",
          "104844.750000",
          "104847.260000",
          "104849.770000",
          "104852.280000",
          "104854.790000",
          "104857.300000",
          "104859.810000",
          "104902.320000",
          "104904.830000",
          "104907.340000",
          "104909.850000",
          "104912.360000",
          "104914.870000",
          "104917.380000",
          "104919.890000",
          "104922.400000",
          "104924.910000",
          "104927.420000",
          "104929.932500",
          "104932.442500",
          "104934.952500",
          "104937.462500",
          "104939.972500",
          "104942.482500",
          "104944.992500",
          "104947.502500",
          "104950.012500",
          "104952.522500",
          "104955.032500",
          "104957.542500",
          "105000.052500",
          "105002.562500",
          "105005.072500",
          "105007.582500",
          "105010.092500",
          "105012.602500",
          "105015.112500",
          "105017.622500",
          "105020.132500",
          "105022.642500",
          "105025.152500",
          "105027.662500",
          "105030.172500",
          "105032.682500",
          "105035.192500",
          "105037.702500",
          "105040.212500",
          "105042.722500",
          "105045.232500",
          "105047.742500"
        ],
        "ContentTime": [
          "104400.765000",
          "104403.250000",
          "104405.750000",
          "104408.250000",
          "104410.750000",
          "104413.250000",
          "104415.750000",
          "104418.250000",
          "104420.750000",
          "104423.250000",
          "104425.750000",
          "104428.250000",
          "104430.750000",
          "104433.250000",
          "104435.750000",
          "104438.250000",
          "104440.750000",
          "104443.250000",
          "104445.750000",
          "104448.250000",
          "104450.750000",
          "104453.250000",
          "104455.750000",
          "104458.250000",
          "104500.750000",
          "104503.250000",
          "104505.750000",
          "104508.250000",
          "104510.750000",
          "104513.250000",
          "104515.750000",
          "104518.250000",
          "104520.750000",
          "104523.250000",
          "104525.750000",
          "104528.250000",
          "104530.750000",
          "104533.250000",
          "104535.750000",
          "104538.250000",
          "104540.750000",
          "104543.250000",
          "104545.750000",
          "104548.250000",
          "104550.750000",
          "104553.250000",
          "104555.750000",
          "104558.250000",
          "104600.750000",
          "104603.250000",
          "104606.250000",
          "104608.250000",
          "104610.750000",
          "104613.250000",
          "104615.750000",
          "104618.250000",
          "104620.750000",
          "104623.250000",
          "104625.750000",
          "104628.250000",
          "104630.750000",
          "104633.250000",
          "104635.750000",
          "104638.250000",
          "104640.750000",
          "104643.250000",
          "104645.750000",
          "104648.250000",
          "104650.750000",
          "104653.250000",
          "104655.750000",
          "104658.250000",
          "104700.750000",
          "104703.250000",
          "104705.750000",
          "104708.250000",
          "104710.750000",
          "104713.250000",
          "104715.750000",
          "104718.250000",
          "104720.750000",
          "104723.250000",
          "104725.750000",
          "104728.250000",
          "104730.750000",
          "104733.250000",
          "104735.750000",
          "104738.250000",
          "104740.750000",
          "104743.250000",
          "104745.750000",
          "104748.250000",
          "104750.750000",
          "104753.250000",
          "104755.750000",
          "104758.250000",
          "104800.750000",
          "104803.250000",
          "104805.750000",
          "104808.250000",
          "104810.750000",
          "104813.250000",
          "104815.750000",
          "104818.250000",
          "104820.750000",
          "104823.250000",
          "104825.750000",
          "104828.250000",
          "104830.750000",
          "104833.250000",
          "104835.750000",
          "104838.250000",
          "104840.750000",
          "104843.250000",
          "104845.750000",
          "104848.250000",
          "104850.750000",
          "104853.250000",
          "104855.750000",
          "104858.250000",
          "104900.750000",
          "104903.250000",
          "104905.750000",
          "104908.250000",
          "104910.750000",
          "104913.250000",
          "104915.750000",
          "104918.250000",
          "104920.750000",
          "104923.250000",
          "104925.750000",
          "104928.250000",
          "104930.750000",
          "104933.250000",
          "104935.750000",
          "104938.250000",
          "104940.750000",
          "104943.250000",
          "104945.750000",
          "104948.250000",
          "104950.750000",
          "104953.250000",
          "104955.750000",
          "104958.250000",
          "105000.750000",
          "105003.250000",
          "105005.750000",
          "105008.250000",
          "105010.750000",
          "105013.250000",
          "105015.750000",
          "105018.250000",
          "105020.750000",
          "105023.250000",
          "105025.750000",
          "105028.250000",
          "105030.750000",
          "105033.250000",
          "105035.750000",
          "105038.250000",
          "105040.750000",
          "105043.250000",
          "105045.750000",
          "105048.187000"
        ],
        "InstanceCreationTime": [
          "104400.765000",
          "104403.250000",
          "104405.750000",
          "104408.250000",
          "104410.750000",
          "104413.250000",
          "104415.750000",
          "104418.250000",
          "104420.750000",
          "104423.250000",
          "104425.750000",
          "104428.250000",
          "104430.750000",
          "104433.250000",
          "104435.750000",
          "104438.250000",
          "104440.750000",
          "104443.250000",
          "104445.750000",
          "104448.250000",
          "104450.750000",
          "104453.250000",
          "104455.750000",
          "104458.250000",
          "104500.750000",
          "104503.250000",
          "104505.750000",
          "104508.250000",
          "104510.750000",
          "104513.250000",
          "104515.750000",
          "104518.250000",
          "104520.750000",
          "104523.250000",
          "104525.750000",
          "104528.250000",
          "104530.750000",
          "104533.250000",
          "104535.750000",
          "104538.250000",
          "104540.750000",
          "104543.250000",
          "104545.750000",
          "104548.250000",
          "104550.750000",
          "104553.250000",
          "104555.750000",
          "104558.250000",
          "104600.750000",
          "104603.250000",
          "104606.250000",
          "104608.250000",
          "104610.750000",
          "104613.250000",
          "104615.750000",
          "104618.250000",
          "104620.750000",
          "104623.250000",
          "104625.750000",
          "104628.250000",
          "104630.750000",
          "104633.250000",
          "104635.750000",
          "104638.250000",
          "104640.750000",
          "104643.250000",
          "104645.750000",
          "104648.250000",
          "104650.750000",
          "104653.250000",
          "104655.750000",
          "104658.250000",
          "104700.750000",
          "104703.250000",
          "104705.750000",
          "104708.250000",
          "104710.750000",
          "104713.250000",
          "104715.750000",
          "104718.250000",
          "104720.750000",
          "104723.250000",
          "104725.750000",
          "104728.250000",
          "104730.750000",
          "104733.250000",
          "104735.750000",
          "104738.250000",
          "104740.750000",
          "104743.250000",
          "104745.750000",
          "104748.250000",
          "104750.750000",
          "104753.250000",
          "104755.750000",
          "104758.250000",
          "104800.750000",
          "104803.250000",
          "104805.750000",
          "104808.250000",
          "104810.750000",
          "104813.250000",
          "104815.750000",
          "104818.250000",
          "104820.750000",
          "104823.250000",
          "104825.750000",
          "104828.250000",
          "104830.750000",
          "104833.250000",
          "104835.750000",
          "104838.250000",
          "104840.750000",
          "104843.250000",
          "104845.750000",
          "104848.250000",
          "104850.750000",
          "104853.250000",
          "104855.750000",
          "104858.250000",
          "104900.750000",
          "104903.250000",
          "104905.750000",
          "104908.250000",
          "104910.750000",
          "104913.250000",
          "104915.750000",
          "104918.250000",
          "104920.750000",
          "104923.250000",
          "104925.750000",
          "104928.250000",
          "104930.750000",
          "104933.250000",
          "104935.750000",
          "104938.250000",
          "104940.750000",
          "104943.250000",
          "104945.750000",
          "104948.250000",
          "104950.750000",
          "104953.250000",
          "104955.750000",
          "104958.250000",
          "105000.750000",
          "105003.250000",
          "105005.750000",
          "105008.250000",
          "105010.750000",
          "105013.250000",
          "105015.750000",
          "105018.250000",
          "105020.750000",
          "105023.250000",
          "105025.750000",
          "105028.250000",
          "105030.750000",
          "105033.250000",
          "105035.750000",
          "105038.250000",
          "105040.750000",
          "105043.250000",
          "105045.750000",
          "105048.187000"
        ],
        "InstanceNumber": [
          1,
          2,
          3,
          4,
          5,
          6,
          7,
          8,
          9,
          10,
          11,
          12,
          13,
          14,
          15,
          16,
          17,
          18,
          19,
          20,
          21,
          22,
          23,
          24,
          25,
          26,
          27,
          28,
          29,
          30,
          31,
          32,
          33,
          34,
          35,
          36,
          37,
          38,
          39,
          40,
          41,
          42,
          43,
          44,
          45,
          46,
          47,
          48,
          49,
          50,
          51,
          52,
          53,
          54,
          55,
          56,
          57,
          58,
          59,
          60,
          61,
          62,
          63,
          64,
          65,
          66,
          67,
          68,
          69,
          70,
          71,
          72,
          73,
          74,
          75,
          76,
          77,
          78,
          79,
          80,
          81,
          82,
          83,
          84,
          85,
          86,
          87,
          88,
          89,
          90,
          91,
          92,
          93,
          94,
          95,
          96,
          97,
          98,
          99,
          100,
          101,
          102,
          103,
          104,
          105,
          106,
          107,
          108,
          109,
          110,
          111,
          112,
          113,
          114,
          115,
          116,
          117,
          118,
          119,
          120,
          121,
          122,
          123,
          124,
          125,
          126,
          127,
          128,
          129,
          130,
          131,
          132,
          133,
          134,
          135,
          136,
          137,
          138,
          139,
          140,
          141,
          142,
          143,
          144,
          145,
          146,
          147,
          148,
          149,
          150,
          151,
          152,
          153,
          154,
          155,
          156,
          157,
          158,
          159,
          160,
          161,
          162,
          163,
          164
        ],
        "LargestImagePixelValue": [
          1296,
          1293,
          1283,
          1286,
          1283,
          1274,
          1270,
          1283,
          1312,
          1286,
          1346,
          1325,
          1320,
          1267,
          1277,
          1326,
          1426,
          1348,
          1260,
          1267,
          1187,
          1447,
          1310,
          1421,
          1387,
          1293,
          1201,
          1201,
          1381,
          1193,
          1212,
          1581,
          1390,
          1327,
          1236,
          1195,
          1232,
          1202,
          1203,
          1208,
          1721,
          1215,
          1392,
          1409,
          1672,
          1516,
          1329,
          1245,
          1237,
          1240,
          1227,
          1761,
          1684,
          1836,
          1324,
          1205,
          1626,
          1499,
          1242,
          1722,
          1356,
          1217,
          1720,
          1280,
          2216,
          1521,
          1565,
          1518,
          1223,
          1181,
          1222,
          1195,
          1195,
          1241,
          1213,
          1296,
          1915,
          1896,
          1504,
          1916,
          1568,
          1205,
          1501,
          1221,
          1201,
          1439,
          1215,
          1479,
          1524,
          1493,
          1973,
          1912,
          1756,
          1193,
          1312,
          1220,
          1481,
          1834,
          1512,
          1316,
          1217,
          1202,
          1208,
          1767,
          1522,
          1477,
          1467,
          1417,
          1263,
          1204,
          1229,
          1234,
          1702,
          1775,
          1644,
          1429,
          1319,
          1229,
          1236,
          1631,
          1449,
          1455,
          1490,
          1235,
          1226,
          1687,
          1516,
          1592,
          1174,
          1217,
          2031,
          1619,
          1247,
          1461,
          1581,
          1463,
          1274,
          1774,
          1261,
          1222,
          1208,
          1327,
          1706,
          1714,
          1751,
          1212,
          1339,
          1391,
          1383,
          1717,
          1315,
          1725,
          1707,
          1211,
          1606,
          1533,
          1224,
          1236,
          1480,
          1263,
          1312,
          1215,
          1847,
          1345
        ],
        "WindowCenter": [
          598.0,
          597.0,
          600.0,
          600.0,
          599.0,
          600.0,
          600.0,
          599.0,
          601.0,
          601.0,
          601.0,
          601.0,
          600.0,
          600.0,
          601.0,
          605.0,
          601.0,
          601.0,
          600.0,
          596.0,
          601.0,
          602.0,
          600.0,
          599.0,
          599.0,
          599.0,
          599.0,
          599.0,
          601.0,
          599.0,
          603.0,
          601.0,
          599.0,
          597.0,
          597.0,
          599.0,
          601.0,
          601.0,
          601.0,
          591.0,
          604.0,
          601.0,
          603.0,
          602.0,
          604.0,
          601.0,
          599.0,
          598.0,
          599.0,
          602.0,
          601.0,
          602.0,
          603.0,
          602.0,
          600.0,
          599.0,
          604.0,
          604.0,
          600.0,
          598.0,
          601.0,
          602.0,
          599.0,
          605.0,
          608.0,
          600.0,
          601.0,
          596.0,
          596.0,
          598.0,
          595.0,
          601.0,
          602.0,
          604.0,
          605.0,
          605.0,
          608.0,
          605.0,
          603.0,
          605.0,
          604.0,
          599.0,
          604.0,
          603.0,
          601.0,
          605.0,
          604.0,
          604.0,
          606.0,
          608.0,
          605.0,
          608.0,
          605.0,
          600.0,
          601.0,
          602.0,
          606.0,
          604.0,
          604.0,
          601.0,
          601.0,
          602.0,
          600.0,
          606.0,
          603.0,
          601.0,
          603.0,
          603.0,
          603.0,
          601.0,
          602.0,
          599.0,
          605.0,
          601.0,
          603.0,
          602.0,
          601.0,
          600.0,
          602.0,
          603.0,
          600.0,
          602.0,
          603.0,
          601.0,
          601.0,
          604.0,
          601.0,
          601.0,
          600.0,
          602.0,
          602.0,
          597.0,
          598.0,
          599.0,
          599.0,
          597.0,
          599.0,
          600.0,
          597.0,
          598.0,
          604.0,
          601.0,
          600.0,
          603.0,
          599.0,
          599.0,
          590.0,
          596.0,
          598.0,
