{
  "aor": 0.010300060975609756,
  "aqi": 0.025450832682926833,
  "bids_meta": {
    "AcquisitionMatrixPE": 64,
    "AcquisitionNumber": 1,
    "AcquisitionTime": "11:15:36.520000",
    "BandwidthPerPixelPhaseEncode": 26.483,
    "BaseResolution": 64,
    "BodyPartExamined": "HEAD",
    "CogAtlasID": "TODO",
    "ConversionSoftware": "dcm2niix",
    "ConversionSoftwareVersion": "v1.0.20171017 GCC6.3.0",
    "DerivedVendorReportedEchoSpacing": 0.000590001,
    "DeviceSerialNumber": "35177",
    "DwellTime": 4.1e-06,
    "EchoTime": 0.027,
    "EffectiveEchoSpacing": 0.000590001,
    "FlipAngle": 90,
    "ImageOrientationPatientDICOM": [
      0.997441,
      0.0462737,
      0.0545021,
      -0.0487864,
      0.997763,
      0.0457121
    ],
    "ImageType": [
      "ORIGINAL",
      "PRIMARY",
      "M",
      "ND",
      "NORM",
      "MOSAIC"
    ],
    "InPlanePhaseEncodingDirectionDICOM": "COL",
    "InstitutionAddress": "Scott_Ave._4525_St._Louis_MO_US_63110",
    "InstitutionName": "Washington_University",
    "InstitutionalDepartmentName": "Department",
    "MRAcquisitionType": "2D",
    "MagneticFieldStrength": 3,
    "Manufacturer": "Siemens",
    "ManufacturersModelName": "TrioTim",
    "Modality": "MR",
    "PartialFourier": 1,
    "PatientPosition": "HFS",
    "PercentPhaseFOV": 100,
    "PhaseEncodingDirection": "j-",
    "PhaseEncodingSteps": 64,
    "PhaseResolution": 1,
    "PixelBandwidth": 1905,
    "ProcedureStepDescription": "head_GREENE",
    "ProtocolName": "ep2d_bold_nonad_movie_2B",
    "PulseSequenceDetails": "%SiemensSeq%_ep2d_bold",
    "ReceiveCoilName": "HeadMatrix",
    "ReconMatrixPE": 64,
    "RepetitionTime": 2.5,
    "SAR": 0.12563,
    "ScanOptions": "FS",
    "ScanningSequence": "EP",
    "SequenceName": "_epfid2d1_64",
    "SequenceVariant": "SK",
    "SeriesDescription": "ep2d_bold_nonad_movie_2B",
    "SeriesNumber": 11,
    "ShimSetting": [
      -254,
      -19600,
      7985,
      341,
      -116,
      -521,
      247,
      -47
    ],
    "SliceThickness": 4,
    "SliceTiming": [
      1.255,
      0,
      1.3325,
      0.0775,
      1.41,
      0.1575,
      1.49,
      0.235,
      1.5675,
      0.3125,
      1.6475,
      0.3925,
      1.725,
      0.47,
      1.8025,
      0.5475,
      1.8825,
      0.6275,
      1.96,
      0.705,
      2.0375,
      0.785,
      2.1175,
      0.8625,
      2.195,
      0.94,
      2.275,
      1.02,
      2.3525,
      1.0975,
      2.43,
      1.175
    ],
    "SoftwareVersions": "syngo_MR_B17",
    "SpacingBetweenSlices": 4,
    "StationName": "MRC35177",
    "TaskName": "restmoviefixed",
    "TotalReadoutTime": 0.0371701,
    "TxRefAmp": 333.738,
    "dataset": "ds000256",
    "dcmmeta_affine": [
      [
        -3.9897634983062744,
        -0.19514571130275726,
        0.20905958116054535,
        138.79893493652344
      ],
      [
        -0.18509480357170105,
        3.9910504817962646,
        0.19301645457744598,
        -127.74984741210938
      ],
      [
        0.21800833940505981,
        -0.1828484684228897,
        3.989868640899658,
        -40.975791931152344
      ],
      [
        0.0,
        0.0,
        0.0,
        1.0
      ]
    ],
    "dcmmeta_reorient_transform": [
      [
        0.0,
        -1.0,
        0.0,
        63.0
      ],
      [
        1.0,
        0.0,
        0.0,
        0.0
      ],
      [
        0.0,
        0.0,
        1.0,
        0.0
      ],
      [
        0.0,
        0.0,
        0.0,
        1.0
      ]
    ],
    "dcmmeta_shape": [
      64,
      64,
      32,
      164
    ],
    "dcmmeta_slice_dim": 2,
    "dcmmeta_version": 0.6,
    "global": {
      "const": {
        "AccessionNumber": ".",
        "AcquisitionMatrix": [
          64,
          0,
          0,
          64
        ],
        "AngioFlag": "N",
        "BitsAllocated": 16,
        "BitsStored": 12,
        "BodyPartExamined": "HEAD",
        "Columns": 384,
        "DeidentificationMethodCodeSequence": [
          {
            "CodeMeaning": "XNAT Edit Script",
            "CodeValue": "625500",
            "CodingSchemeDesignator": "XNAT",
            "CodingSchemeVersion": "0.1"
          }
        ],
        "EchoNumbers": 1,
        "EchoTime": 27.0,
        "EchoTrainLength": 1,
        "FlipAngle": 90.0,
        "HighBit": 11,
        "ImageOrientationPatient": [
          0.99744085909659,
          0.04627370129051,
          0.05450208412099,
          -0.0487864273149,
          0.99776264059869,
          0.04571211584881
        ],
        "ImagePositionPatient": [
          -733.64359659692,
          -791.86959509544,
          -116.63233318301
        ],
        "ImageType": [
          "ORIGINAL",
          "PRIMARY",
          "M",
          "ND",
          "NORM",
          "MOSAIC"
        ],
        "ImagedNucleus": "1H",
        "ImagingFrequency": 123.256218,
        "InPlanePhaseEncodingDirection": "COL",
        "MRAcquisitionType": "2D",
        "MagneticFieldStrength": 3.0,
        "Manufacturer": "SIEMENS",
        "ManufacturerModelName": "TrioTim",
        "Modality": "MR",
        "NumberOfAverages": 1.0,
        "NumberOfPhaseEncodingSteps": 64,
        "PercentPhaseFieldOfView": 100.0,
        "PercentSampling": 100.0,
        "PerformedProcedureStepStartTime": "102513.546000",
        "PhotometricInterpretation": "MONOCHROME2",
        "PixelBandwidth": 1905.0,
        "PixelRepresentation": 0,
        "PixelSpacing": [
          4.0,
          4.0
        ],
        "PositionReferenceIndicator": "",
        "ProtocolName": "ep2d_bold_nonad_movie_2B",
        "RepetitionTime": 2500.0,
        "Rows": 384,
        "SAR": 0.12563020719281,
        "SamplesPerPixel": 1,
        "ScanOptions": "FS",
        "ScanningSequence": "EP",
        "SequenceName": "*epfid2d1_64",
        "SequenceVariant": "SK",
        "SeriesDescription": "ep2d_bold_nonad_movie_2B",
        "SeriesNumber": 11,
        "SeriesTime": "111538.609000",
        "SliceLocation": -39.782134296903,
        "SliceThickness": 4.0,
        "SmallestImagePixelValue": 0,
        "SoftwareVersions": "syngo MR B17",
        "SpacingBetweenSlices": 4.0000015213,
        "SpecificCharacterSet": "ISO_IR 100",
        "StudyID": "1",
        "StudyTime": "102513.500000",
        "TransmitCoilName": "Body",
        "VariableFlipAngleFlag": "N",
        "WindowCenterWidthExplanation": "Algo1",
        "dBdt": 0.0
      },
      "slices": {}
    },
    "modality": "bold",
    "subject_id": "CTS239",
    "task_id": "restmoviefixed",
    "time": {
      "samples": {
        "AcquisitionNumber": [
          1,
          2,
          3,
          4,
          5,
          6,
          7,
          8,
          9,
          10,
          11,
          12,
          13,
          14,
          15,
          16,
          17,
          18,
          19,
          20,
          21,
          22,
          23,
          24,
          25,
          26,
          27,
          28,
          29,
          30,
          31,
          32,
          33,
          34,
          35,
          36,
          37,
          38,
          39,
          40,
          41,
          42,
          43,
          44,
          45,
          46,
          47,
          48,
          49,
          50,
          51,
          52,
          53,
          54,
          55,
          56,
          57,
          58,
          59,
          60,
          61,
          62,
          63,
          64,
          65,
          66,
          67,
          68,
          69,
          70,
          71,
          72,
          73,
          74,
          75,
          76,
          77,
          78,
          79,
          80,
          81,
          82,
          83,
          84,
          85,
          86,
          87,
          88,
          89,
          90,
          91,
          92,
          93,
          94,
          95,
          96,
          97,
          98,
          99,
          100,
          101,
          102,
          103,
          104,
          105,
          106,
          107,
          108,
          109,
          110,
          111,
          112,
          113,
          114,
          115,
          116,
          117,
          118,
          119,
          120,
          121,
          122,
          123,
          124,
          125,
          126,
          127,
          128,
          129,
          130,
          131,
          132,
          133,
          134,
          135,
          136,
          137,
          138,
          139,
          140,
          141,
          142,
          143,
          144,
          145,
          146,
          147,
          148,
          149,
          150,
          151,
          152,
          153,
          154,
          155,
          156,
          157,
          158,
          159,
          160,
          161,
          162,
          163,
          164
        ],
        "AcquisitionTime": [
          "111536.520000",
          "111539.030000",
          "111541.540000",
          "111544.050000",
          "111546.560000",
          "111549.070000",
          "111551.580000",
          "111554.090000",
          "111556.600000",
          "111559.110000",
          "111601.620000",
          "111604.130000",
          "111606.640000",
          "111609.150000",
          "111611.660000",
          "111614.170000",
          "111616.680000",
          "111619.190000",
          "111621.700000",
          "111624.210000",
          "111626.720000",
          "111629.230000",
          "111631.740000",
          "111634.250000",
          "111636.760000",
          "111639.270000",
          "111641.780000",
          "111644.290000",
          "111646.800000",
          "111649.310000",
          "111651.820000",
          "111654.330000",
          "111656.840000",
          "111659.350000",
          "111701.860000",
          "111704.370000",
          "111706.880000",
          "111709.390000",
          "111711.900000",
          "111714.410000",
          "111716.920000",
          "111719.430000",
          "111721.940000",
          "111724.450000",
          "111726.960000",
          "111729.470000",
          "111731.980000",
          "111734.492500",
          "111737.002500",
          "111739.512500",
          "111742.022500",
          "111744.532500",
          "111747.042500",
          "111749.552500",
          "111752.062500",
          "111754.572500",
          "111757.082500",
          "111759.592500",
          "111802.102500",
          "111804.612500",
          "111807.122500",
          "111809.632500",
          "111812.142500",
          "111814.652500",
          "111817.162500",
          "111819.672500",
          "111822.182500",
          "111824.692500",
          "111827.202500",
          "111829.712500",
          "111832.222500",
          "111834.732500",
          "111837.242500",
          "111839.752500",
          "111842.262500",
          "111844.772500",
          "111847.282500",
          "111849.792500",
          "111852.302500",
          "111854.812500",
          "111857.322500",
          "111859.832500",
          "111902.342500",
          "111904.852500",
          "111907.362500",
          "111909.872500",
          "111912.382500",
          "111914.892500",
          "111917.402500",
          "111919.912500",
          "111922.422500",
          "111924.932500",
          "111927.442500",
          "111929.952500",
          "111932.462500",
          "111934.972500",
          "111937.482500",
          "111939.992500",
          "111942.502500",
          "111945.012500",
          "111947.522500",
          "111950.032500",
          "111952.542500",
          "111955.052500",
          "111957.562500",
          "112000.072500",
          "112002.582500",
          "112005.092500",
          "112007.602500",
          "112010.115000",
          "112012.625000",
          "112015.135000",
          "112017.645000",
          "112020.155000",
          "112022.665000",
          "112025.175000",
          "112027.685000",
          "112030.195000",
          "112032.705000",
          "112035.215000",
          "112037.725000",
          "112040.235000",
          "112042.745000",
          "112045.255000",
          "112047.765000",
          "112050.275000",
          "112052.785000",
          "112055.295000",
          "112057.805000",
          "112100.315000",
          "112102.825000",
          "112105.335000",
          "112107.845000",
          "112110.355000",
          "112112.865000",
          "112115.375000",
          "112117.885000",
          "112120.395000",
          "112122.905000",
          "112125.415000",
          "112127.925000",
          "112130.435000",
          "112132.945000",
          "112135.455000",
          "112137.965000",
          "112140.475000",
          "112142.985000",
          "112145.495000",
          "112148.005000",
          "112150.515000",
          "112153.025000",
          "112155.535000",
          "112158.045000",
          "112200.555000",
          "112203.065000",
          "112205.575000",
          "112208.085000",
          "112210.595000",
          "112213.105000",
          "112215.615000",
          "112218.125000",
          "112220.635000",
          "112223.145000",
          "112225.655000"
        ],
        "ContentTime": [
          "111538.609000",
          "111541.093000",
          "111543.593000",
          "111546.093000",
          "111548.593000",
          "111551.093000",
          "111553.593000",
          "111556.093000",
          "111558.593000",
          "111601.093000",
          "111603.593000",
          "111606.093000",
          "111608.593000",
          "111611.093000",
          "111613.593000",
          "111616.093000",
          "111618.593000",
          "111621.093000",
          "111623.593000",
          "111626.093000",
          "111628.593000",
          "111631.093000",
          "111633.593000",
          "111636.093000",
          "111638.593000",
          "111641.093000",
          "111643.593000",
          "111646.093000",
          "111648.593000",
          "111651.093000",
          "111653.593000",
          "111656.093000",
          "111658.593000",
          "111701.093000",
          "111703.593000",
          "111706.093000",
          "111708.593000",
          "111711.093000",
          "111713.593000",
          "111716.093000",
          "111718.593000",
          "111721.093000",
          "111723.593000",
          "111726.093000",
          "111728.593000",
          "111731.093000",
          "111733.593000",
          "111736.093000",
          "111738.593000",
          "111741.093000",
          "111743.593000",
          "111746.093000",
          "111748.593000",
          "111751.093000",
          "111753.593000",
          "111756.093000",
          "111758.593000",
          "111801.093000",
          "111803.593000",
          "111806.093000",
          "111808.593000",
          "111811.093000",
          "111813.593000",
          "111816.093000",
          "111818.593000",
          "111821.093000",
          "111823.593000",
          "111826.093000",
          "111828.593000",
          "111831.093000",
          "111833.593000",
          "111836.093000",
          "111838.593000",
          "111841.093000",
          "111843.593000",
          "111846.093000",
          "111848.593000",
          "111851.093000",
          "111853.593000",
          "111856.093000",
          "111858.593000",
          "111901.093000",
          "111903.593000",
          "111906.093000",
          "111908.593000",
          "111911.093000",
          "111913.593000",
          "111916.093000",
          "111918.593000",
          "111921.093000",
          "111923.593000",
          "111926.093000",
          "111928.593000",
          "111931.093000",
          "111933.593000",
          "111936.093000",
          "111938.593000",
          "111941.093000",
          "111943.593000",
          "111946.093000",
          "111948.593000",
          "111951.093000",
          "111953.593000",
          "111956.093000",
          "111958.593000",
          "112001.093000",
          "112003.593000",
          "112006.093000",
          "112008.593000",
          "112011.093000",
          "112013.593000",
          "112016.093000",
          "112018.593000",
          "112021.093000",
          "112023.593000",
          "112026.093000",
          "112028.593000",
          "112031.093000",
          "112033.593000",
          "112036.093000",
          "112038.593000",
          "112041.093000",
          "112043.593000",
          "112046.093000",
          "112048.593000",
          "112051.093000",
          "112053.593000",
          "112056.093000",
          "112058.593000",
          "112101.093000",
          "112103.593000",
          "112106.093000",
          "112108.593000",
          "112111.093000",
          "112113.593000",
          "112116.093000",
          "112118.593000",
          "112121.093000",
          "112123.593000",
          "112126.093000",
          "112128.593000",
          "112131.093000",
          "112133.593000",
          "112136.093000",
          "112138.593000",
          "112141.109000",
          "112143.593000",
          "112146.093000",
          "112148.593000",
          "112151.093000",
          "112153.593000",
          "112156.093000",
          "112158.593000",
          "112201.093000",
          "112203.593000",
          "112206.093000",
          "112208.593000",
          "112211.093000",
          "112213.593000",
          "112216.093000",
          "112218.593000",
          "112221.093000",
          "112223.593000",
          "112226.015000"
        ],
        "InstanceCreationTime": [
          "111538.609000",
          "111541.093000",
          "111543.593000",
          "111546.093000",
          "111548.593000",
          "111551.093000",
          "111553.593000",
          "111556.093000",
          "111558.593000",
          "111601.093000",
          "111603.593000",
          "111606.093000",
          "111608.593000",
          "111611.093000",
          "111613.593000",
          "111616.093000",
          "111618.593000",
          "111621.093000",
          "111623.593000",
          "111626.093000",
          "111628.593000",
          "111631.093000",
          "111633.593000",
          "111636.093000",
          "111638.593000",
          "111641.093000",
          "111643.593000",
          "111646.093000",
          "111648.593000",
          "111651.093000",
          "111653.593000",
          "111656.093000",
          "111658.593000",
          "111701.093000",
          "111703.593000",
          "111706.093000",
          "111708.593000",
          "111711.093000",
          "111713.593000",
          "111716.093000",
          "111718.593000",
          "111721.093000",
          "111723.593000",
          "111726.093000",
          "111728.593000",
          "111731.093000",
          "111733.593000",
          "111736.093000",
          "111738.593000",
          "111741.093000",
          "111743.593000",
          "111746.093000",
          "111748.593000",
          "111751.093000",
          "111753.593000",
          "111756.093000",
          "111758.593000",
          "111801.093000",
          "111803.593000",
          "111806.093000",
          "111808.593000",
          "111811.093000",
          "111813.593000",
          "111816.093000",
          "111818.593000",
          "111821.093000",
          "111823.593000",
          "111826.093000",
          "111828.593000",
          "111831.093000",
          "111833.593000",
          "111836.093000",
          "111838.593000",
          "111841.093000",
          "111843.593000",
          "111846.093000",
          "111848.593000",
          "111851.093000",
          "111853.593000",
          "111856.093000",
          "111858.593000",
          "111901.093000",
          "111903.593000",
          "111906.093000",
          "111908.593000",
          "111911.093000",
          "111913.593000",
          "111916.093000",
          "111918.593000",
          "111921.093000",
          "111923.593000",
          "111926.093000",
          "111928.593000",
          "111931.093000",
          "111933.593000",
          "111936.093000",
          "111938.593000",
          "111941.093000",
          "111943.593000",
          "111946.093000",
          "111948.593000",
          "111951.093000",
          "111953.593000",
          "111956.093000",
          "111958.593000",
          "112001.093000",
          "112003.593000",
          "112006.093000",
          "112008.593000",
          "112011.093000",
          "112013.593000",
          "112016.093000",
          "112018.593000",
          "112021.093000",
          "112023.593000",
          "112026.093000",
          "112028.593000",
          "112031.093000",
          "112033.593000",
          "112036.093000",
          "112038.593000",
          "112041.093000",
          "112043.593000",
          "112046.093000",
          "112048.593000",
          "112051.093000",
          "112053.593000",
          "112056.093000",
          "112058.593000",
          "112101.093000",
          "112103.593000",
          "112106.093000",
          "112108.593000",
          "112111.093000",
          "112113.593000",
          "112116.093000",
          "112118.593000",
          "112121.093000",
          "112123.593000",
          "112126.093000",
          "112128.593000",
          "112131.093000",
          "112133.593000",
          "112136.093000",
          "112138.593000",
          "112141.109000",
          "112143.593000",
          "112146.093000",
          "112148.593000",
          "112151.093000",
          "112153.593000",
          "112156.093000",
          "112158.593000",
          "112201.093000",
          "112203.593000",
          "112206.093000",
          "112208.593000",
          "112211.093000",
          "112213.593000",
          "112216.093000",
          "112218.593000",
          "112221.093000",
          "112223.593000",
          "112226.015000"
        ],
        "InstanceNumber": [
          1,
          2,
          3,
          4,
          5,
          6,
          7,
          8,
          9,
          10,
          11,
          12,
          13,
          14,
          15,
          16,
          17,
          18,
          19,
          20,
          21,
          22,
          23,
          24,
          25,
          26,
          27,
          28,
          29,
          30,
          31,
          32,
          33,
          34,
          35,
          36,
          37,
          38,
          39,
          40,
          41,
          42,
          43,
          44,
          45,
          46,
          47,
          48,
          49,
          50,
          51,
          52,
          53,
          54,
          55,
          56,
          57,
          58,
          59,
          60,
          61,
          62,
          63,
          64,
          65,
          66,
          67,
          68,
          69,
          70,
          71,
          72,
          73,
          74,
          75,
          76,
          77,
          78,
          79,
          80,
          81,
          82,
          83,
          84,
          85,
          86,
          87,
          88,
          89,
          90,
          91,
          92,
          93,
          94,
          95,
          96,
          97,
          98,
          99,
          100,
          101,
          102,
          103,
          104,
          105,
          106,
          107,
          108,
          109,
          110,
          111,
          112,
          113,
          114,
          115,
          116,
          117,
          118,
          119,
          120,
          121,
          122,
          123,
          124,
          125,
          126,
          127,
          128,
          129,
          130,
          131,
          132,
          133,
          134,
          135,
          136,
          137,
          138,
          139,
          140,
          141,
          142,
          143,
          144,
          145,
          146,
          147,
          148,
          149,
          150,
          151,
          152,
          153,
          154,
          155,
          156,
          157,
          158,
          159,
          160,
          161,
          162,
          163,
          164
        ],
        "LargestImagePixelValue": [
          1313,
          1305,
          1268,
          1251,
          1321,
          1250,
          1509,
          1282,
          1344,
          1439,
          1362,
          1700,
          1374,
          1550,
          1251,
          1453,
          1284,
          1321,
          1592,
          1637,
          1520,
          1654,
          1272,
          1597,
          1265,
          1422,
          1278,
          1505,
          1265,
          1472,
          1261,
          1469,
          1274,
          1478,
          1318,
          1591,
          1362,
          1614,
          1542,
          1278,
          1469,
          1332,
          1686,
          1308,
          1396,
          1421,
          1533,
          1264,
          1269,
          1472,
          1393,
          1503,
          1418,
          1593,
          1582,
          1341,
          1569,
          1362,
          1517,
          1265,
          1437,
          1254,
          1486,
          1328,
          1424,
          1681,
          1472,
          1274,
          1301,
          1468,
          1708,
          1648,
          1642,
          1300,
          1376,
          1304,
          1436,
          1300,
          1355,
          1479,
          1485,
          1841,
          1371,
          1442,
          1676,
          1452,
          1549,
          1572,
          1451,
          1369,
          1305,
          1556,
          1267,
          1483,
          1263,
          1529,
          1931,
          1270,
          1320,
          1251,
          1564,
          1301,
          1605,
          1394,
          1297,
          1217,
          1301,
          1297,
          1280,
          1331,
          1278,
          1389,
          1263,
          1474,
          1344,
          1345,
          1269,
          1417,
          1264,
          1277,
          1388,
          1500,
          1248,
          1487,
          1419,
          1280,
          1270,
          1307,
          1691,
          1383,
          1444,
          1334,
          1462,
          1267,
          1507,
          1463,
          1366,
          1384,
          1420,
          1325,
          1337,
          1561,
          1405,
          2228,
          1549,
          1310,
          1908,
          1401,
          1291,
          1529,
          1701,
          1434,
          1411,
          1636,
          1411,
          1551,
          1541,
          1618,
          1614,
          1574,
          1389,
          1604,
          1360,
          1366
        ],
        "WindowCenter": [
          602.0,
          596.0,
          603.0,
          603.0,
          602.0,
          604.0,
          604.0,
          601.0,
          604.0,
          604.0,
          605.0,
          606.0,
          605.0,
          606.0,
          603.0,
          602.0,
          604.0,
          606.0,
          607.0,
          606.0,
          604.0,
          604.0,
          603.0,
          604.0,
          602.0,
          604.0,
          603.0,
          605.0,
          603.0,
          603.0,
          603.0,
          605.0,
          604.0,
          604.0,
          605.0,
          606.0,
          602.0,
          605.0,
          604.0,
          600.0,
          602.0,
          604.0,
          604.0,
          602.0,
          603.0,
          604.0,
          601.0,
          604.0,
          604.0,
          606.0,
          603.0,
          605.0,
          605.0,
          604.0,
          605.0,
          603.0,
          604.0,
          603.0,
          604.0,
          602.0,
          603.0,
          603.0,
          605.0,
          603.0,
          605.0,
          606.0,
          604.0,
          602.0,
          601.0,
          604.0,
          605.0,
          603.0,
          602.0,
          600.0,
          602.0,
          602.0,
          604.0,
          604.0,
          605.0,
          605.0,
          605.0,
          606.0,
          604.0,
          604.0,
          604.0,
          604.0,
          606.0,
          602.0,
          604.0,
          605.0,
          603.0,
          604.0,
          603.0,
          605.0,
          603.0,
          605.0,
          603.0,
          603.0,
          593.0,
          604.0,
          605.0,
          602.0,
          601.0,
          599.0,
          599.0,
          603.0,
          604.0,
          604.0,
          604.0,
          604.0,
          606.0,
          606.0,
          605.0,
          606.0,
          604.0,
          604.0,
          603.0,
          605.0,
          603.0,
          605.0,
          604.0,
          603.0,
          603.0,
          604.0,
          603.0,
          602.0,
          601.0,
          604.0,
          604.0,
          603.0,
          602.0,
          602.0,
          603.0,
          603.0,
          604.0,
          604.0,
          603.0,
          604.0,
          604.0,
          598.0,
          603.0,
          603.0,
          599.0,
          600.0,
          603.0,
          603.0,
          605.0,
          604.0,
