{
  "aor": 0.00418890243902439,
  "aqi": 0.005482699573170732,
  "bids_meta": {
    "AcquisitionMatrixPE": 64,
    "AcquisitionNumber": 1,
    "AcquisitionTime": "09:57:1.575000",
    "BandwidthPerPixelPhaseEncode": 26.483,
    "BaseResolution": 64,
    "BodyPartExamined": "HEAD",
    "CogAtlasID": "TODO",
    "ConversionSoftware": "dcm2niix",
    "ConversionSoftwareVersion": "v1.0.20171017 GCC6.3.0",
    "DerivedVendorReportedEchoSpacing": 0.000590001,
    "DeviceSerialNumber": "35177",
    "DwellTime": 4.1e-06,
    "EchoTime": 0.027,
    "EffectiveEchoSpacing": 0.000590001,
    "FlipAngle": 90,
    "ImageOrientationPatientDICOM": [
      0.997654,
      -0.0509465,
      -0.0457332,
      0.0608272,
      0.966174,
      0.250613
    ],
    "ImageType": [
      "ORIGINAL",
      "PRIMARY",
      "M",
      "ND",
      "NORM",
      "MOSAIC"
    ],
    "InPlanePhaseEncodingDirectionDICOM": "COL",
    "InstitutionAddress": "Scott_Ave._4525_St._Louis_MO_US_63110",
    "InstitutionName": "Washington_University",
    "InstitutionalDepartmentName": "Department",
    "MRAcquisitionType": "2D",
    "MagneticFieldStrength": 3,
    "Manufacturer": "Siemens",
    "ManufacturersModelName": "TrioTim",
    "Modality": "MR",
    "PartialFourier": 1,
    "PatientPosition": "HFS",
    "PercentPhaseFOV": 100,
    "PhaseEncodingDirection": "j-",
    "PhaseEncodingSteps": 64,
    "PhaseResolution": 1,
    "PixelBandwidth": 1905,
    "ProcedureStepDescription": "head_Dosenbach_MSC",
    "ProtocolName": "ep2d_bold_nonad_movie_1B",
    "PulseSequenceDetails": "%SiemensSeq%_ep2d_bold",
    "ReceiveCoilName": "HeadMatrix",
    "ReconMatrixPE": 64,
    "RepetitionTime": 2.5,
    "SAR": 0.150046,
    "ScanOptions": "FS",
    "ScanningSequence": "EP",
    "SequenceName": "_epfid2d1_64",
    "SequenceVariant": "SK",
    "SeriesDescription": "ep2d_bold_nonad_movie_1B",
    "SeriesNumber": 10,
    "ShimSetting": [
      -261,
      -19693,
      7988,
      384,
      112,
      -946,
      773,
      45
    ],
    "SliceThickness": 4,
    "SliceTiming": [
      1.255,
      0,
      1.3325,
      0.0775,
      1.41,
      0.1575,
      1.49,
      0.235,
      1.5675,
      0.3125,
      1.6475,
      0.3925,
      1.725,
      0.47,
      1.8025,
      0.5475,
      1.8825,
      0.6275,
      1.96,
      0.705,
      2.0375,
      0.785,
      2.1175,
      0.8625,
      2.195,
      0.94,
      2.275,
      1.02,
      2.3525,
      1.0975,
      2.43,
      1.175
    ],
    "SoftwareVersions": "syngo_MR_B17",
    "SpacingBetweenSlices": 4,
    "StationName": "MRC35177",
    "TaskName": "restmoviefixed",
    "TotalReadoutTime": 0.0371701,
    "TxRefAmp": 341.242,
    "dataset": "ds000256",
    "dcmmeta_affine": [
      [
        -3.990614891052246,
        0.2433089166879654,
        -0.12567339837551117,
        108.6343002319336
      ],
      [
        0.20378591120243073,
        3.8646979331970215,
        1.0112266540527344,
        -151.06729125976562
      ],
      [
        -0.18293264508247375,
        -1.0024518966674805,
        3.8680241107940674,
        15.90594482421875
      ],
      [
        0.0,
        0.0,
        0.0,
        1.0
      ]
    ],
    "dcmmeta_reorient_transform": [
      [
        0.0,
        -1.0,
        0.0,
        63.0
      ],
      [
        1.0,
        0.0,
        0.0,
        0.0
      ],
      [
        0.0,
        0.0,
        1.0,
        0.0
      ],
      [
        0.0,
        0.0,
        0.0,
        1.0
      ]
    ],
    "dcmmeta_shape": [
      64,
      64,
      32,
      164
    ],
    "dcmmeta_slice_dim": 2,
    "dcmmeta_version": 0.6,
    "global": {
      "const": {
        "AccessionNumber": ".",
        "AcquisitionMatrix": [
          64,
          0,
          0,
          64
        ],
        "AngioFlag": "N",
        "BitsAllocated": 16,
        "BitsStored": 12,
        "BodyPartExamined": "HEAD",
        "Columns": 384,
        "DeidentificationMethodCodeSequence": [
          {
            "CodeMeaning": "XNAT Edit Script",
            "CodeValue": "625500",
            "CodingSchemeDesignator": "XNAT",
            "CodingSchemeVersion": "0.1"
          }
        ],
        "EchoNumbers": 1,
        "EchoTime": 27.0,
        "EchoTrainLength": 1,
        "FlipAngle": 90.0,
        "HighBit": 11,
        "ImageOrientationPatient": [
          0.99765371467228,
          -0.0509464785954,
          -0.0457331599535,
          0.06082723034402,
          0.9661745104294,
          0.25061297541265
        ],
        "ImagePositionPatient": [
          -801.39056914166,
          -678.15462895209,
          -178.37160688776
        ],
        "ImageType": [
          "ORIGINAL",
          "PRIMARY",
          "M",
          "ND",
          "NORM",
          "MOSAIC"
        ],
        "ImagedNucleus": "1H",
        "ImagingFrequency": 123.256198,
        "InPlanePhaseEncodingDirection": "COL",
        "MRAcquisitionType": "2D",
        "MagneticFieldStrength": 3.0,
        "Manufacturer": "SIEMENS",
        "ManufacturerModelName": "TrioTim",
        "Modality": "MR",
        "NumberOfAverages": 1.0,
        "NumberOfPhaseEncodingSteps": 64,
        "PercentPhaseFieldOfView": 100.0,
        "PercentSampling": 100.0,
        "PerformedProcedureStepStartTime": "091214.406000",
        "PhotometricInterpretation": "MONOCHROME2",
        "PixelBandwidth": 1905.0,
        "PixelRepresentation": 0,
        "PixelSpacing": [
          4.0,
          4.0
        ],
        "PositionReferenceIndicator": "",
        "ProtocolName": "ep2d_bold_nonad_movie_1B",
        "RepetitionTime": 2500.0,
        "Rows": 384,
        "SAR": 0.15004633395047,
        "SamplesPerPixel": 1,
        "ScanOptions": "FS",
        "ScanningSequence": "EP",
        "SequenceName": "*epfid2d1_64",
        "SequenceVariant": "SK",
        "SeriesDescription": "ep2d_bold_nonad_movie_1B",
        "SeriesNumber": 10,
        "SeriesTime": "095703.218000",
        "SliceLocation": -26.22279552597,
        "SliceThickness": 4.0,
        "SmallestImagePixelValue": 0,
        "SoftwareVersions": "syngo MR B17",
        "SpacingBetweenSlices": 3.9999980657859,
        "SpecificCharacterSet": "ISO_IR 100",
        "StudyID": "1",
        "StudyTime": "091214.375000",
        "TransmitCoilName": "Body",
        "VariableFlipAngleFlag": "N",
        "WindowCenterWidthExplanation": "Algo1",
        "dBdt": 0.0
      },
      "slices": {}
    },
    "modality": "bold",
    "subject_id": "CTS238",
    "task_id": "restmoviefixed",
    "time": {
      "samples": {
        "AcquisitionNumber": [
          1,
          2,
          3,
          4,
          5,
          6,
          7,
          8,
          9,
          10,
          11,
          12,
          13,
          14,
          15,
          16,
          17,
          18,
          19,
          20,
          21,
          22,
          23,
          24,
          25,
          26,
          27,
          28,
          29,
          30,
          31,
          32,
          33,
          34,
          35,
          36,
          37,
          38,
          39,
          40,
          41,
          42,
          43,
          44,
          45,
          46,
          47,
          48,
          49,
          50,
          51,
          52,
          53,
          54,
          55,
          56,
          57,
          58,
          59,
          60,
          61,
          62,
          63,
          64,
          65,
          66,
          67,
          68,
          69,
          70,
          71,
          72,
          73,
          74,
          75,
          76,
          77,
          78,
          79,
          80,
          81,
          82,
          83,
          84,
          85,
          86,
          87,
          88,
          89,
          90,
          91,
          92,
          93,
          94,
          95,
          96,
          97,
          98,
          99,
          100,
          101,
          102,
          103,
          104,
          105,
          106,
          107,
          108,
          109,
          110,
          111,
          112,
          113,
          114,
          115,
          116,
          117,
          118,
          119,
          120,
          121,
          122,
          123,
          124,
          125,
          126,
          127,
          128,
          129,
          130,
          131,
          132,
          133,
          134,
          135,
          136,
          137,
          138,
          139,
          140,
          141,
          142,
          143,
          144,
          145,
          146,
          147,
          148,
          149,
          150,
          151,
          152,
          153,
          154,
          155,
          156,
          157,
          158,
          159,
          160,
          161,
          162,
          163,
          164
        ],
        "AcquisitionTime": [
          "095701.575000",
          "095704.085000",
          "095706.595000",
          "095709.105000",
          "095711.615000",
          "095714.125000",
          "095716.635000",
          "095719.145000",
          "095721.655000",
          "095724.165000",
          "095726.675000",
          "095729.185000",
          "095731.695000",
          "095734.205000",
          "095736.715000",
          "095739.225000",
          "095741.735000",
          "095744.245000",
          "095746.755000",
          "095749.265000",
          "095751.775000",
          "095754.285000",
          "095756.795000",
          "095759.305000",
          "095801.815000",
          "095804.325000",
          "095806.835000",
          "095809.345000",
          "095811.855000",
          "095814.365000",
          "095816.875000",
          "095819.385000",
          "095821.895000",
          "095824.405000",
          "095826.915000",
          "095829.425000",
          "095831.935000",
          "095834.445000",
          "095836.955000",
          "095839.465000",
          "095841.975000",
          "095844.485000",
          "095846.995000",
          "095849.505000",
          "095852.015000",
          "095854.525000",
          "095857.035000",
          "095859.545000",
          "095902.057500",
          "095904.567500",
          "095907.077500",
          "095909.587500",
          "095912.097500",
          "095914.607500",
          "095917.117500",
          "095919.627500",
          "095922.137500",
          "095924.647500",
          "095927.157500",
          "095929.667500",
          "095932.177500",
          "095934.687500",
          "095937.197500",
          "095939.707500",
          "095942.217500",
          "095944.727500",
          "095947.237500",
          "095949.747500",
          "095952.257500",
          "095954.767500",
          "095957.277500",
          "095959.787500",
          "100002.297500",
          "100004.807500",
          "100007.317500",
          "100009.827500",
          "100012.337500",
          "100014.847500",
          "100017.357500",
          "100019.867500",
          "100022.377500",
          "100024.887500",
          "100027.397500",
          "100029.907500",
          "100032.417500",
          "100034.927500",
          "100037.437500",
          "100039.947500",
          "100042.457500",
          "100044.967500",
          "100047.477500",
          "100049.987500",
          "100052.497500",
          "100055.007500",
          "100057.517500",
          "100100.027500",
          "100102.537500",
          "100105.047500",
          "100107.557500",
          "100110.067500",
          "100112.577500",
          "100115.087500",
          "100117.597500",
          "100120.107500",
          "100122.617500",
          "100125.127500",
          "100127.637500",
          "100130.147500",
          "100132.657500",
          "100135.167500",
          "100137.680000",
          "100140.190000",
          "100142.700000",
          "100145.210000",
          "100147.720000",
          "100150.230000",
          "100152.740000",
          "100155.250000",
          "100157.760000",
          "100200.270000",
          "100202.780000",
          "100205.290000",
          "100207.800000",
          "100210.310000",
          "100212.820000",
          "100215.330000",
          "100217.840000",
          "100220.350000",
          "100222.860000",
          "100225.370000",
          "100227.880000",
          "100230.390000",
          "100232.900000",
          "100235.410000",
          "100237.920000",
          "100240.430000",
          "100242.940000",
          "100245.450000",
          "100247.960000",
          "100250.470000",
          "100252.980000",
          "100255.490000",
          "100258.000000",
          "100300.510000",
          "100303.020000",
          "100305.530000",
          "100308.040000",
          "100310.550000",
          "100313.060000",
          "100315.570000",
          "100318.080000",
          "100320.590000",
          "100323.100000",
          "100325.610000",
          "100328.120000",
          "100330.630000",
          "100333.140000",
          "100335.650000",
          "100338.160000",
          "100340.670000",
          "100343.180000",
          "100345.690000",
          "100348.200000",
          "100350.710000"
        ],
        "ContentTime": [
          "095703.234000",
          "095705.703000",
          "095708.203000",
          "095710.703000",
          "095713.203000",
          "095715.703000",
          "095718.203000",
          "095720.703000",
          "095723.203000",
          "095725.703000",
          "095728.203000",
          "095730.703000",
          "095733.203000",
          "095735.703000",
          "095738.203000",
          "095740.703000",
          "095743.203000",
          "095745.703000",
          "095748.203000",
          "095750.703000",
          "095753.203000",
          "095755.703000",
          "095758.203000",
          "095800.703000",
          "095803.203000",
          "095805.703000",
          "095808.203000",
          "095810.703000",
          "095813.203000",
          "095815.703000",
          "095818.203000",
          "095820.703000",
          "095823.203000",
          "095825.703000",
          "095828.203000",
          "095830.703000",
          "095833.203000",
          "095835.703000",
          "095838.203000",
          "095840.703000",
          "095843.203000",
          "095845.703000",
          "095848.203000",
          "095850.703000",
          "095853.203000",
          "095855.703000",
          "095858.203000",
          "095900.703000",
          "095903.203000",
          "095905.703000",
          "095908.203000",
          "095910.703000",
          "095913.203000",
          "095915.703000",
          "095918.203000",
          "095920.703000",
          "095923.203000",
          "095925.703000",
          "095928.203000",
          "095930.703000",
          "095933.203000",
          "095935.703000",
          "095938.203000",
          "095940.703000",
          "095943.203000",
          "095945.703000",
          "095948.203000",
          "095950.703000",
          "095953.203000",
          "095955.703000",
          "095958.203000",
          "100000.703000",
          "100003.203000",
          "100005.703000",
          "100008.203000",
          "100010.703000",
          "100013.203000",
          "100015.703000",
          "100018.203000",
          "100020.703000",
          "100023.203000",
          "100025.703000",
          "100028.203000",
          "100030.703000",
          "100033.203000",
          "100035.703000",
          "100038.203000",
          "100040.703000",
          "100043.203000",
          "100045.703000",
          "100048.203000",
          "100050.703000",
          "100053.203000",
          "100055.703000",
          "100058.203000",
          "100100.703000",
          "100103.203000",
          "100105.703000",
          "100108.203000",
          "100110.703000",
          "100113.203000",
          "100115.703000",
          "100118.203000",
          "100120.703000",
          "100123.203000",
          "100125.703000",
          "100128.203000",
          "100130.703000",
          "100133.203000",
          "100135.703000",
          "100138.203000",
          "100140.703000",
          "100143.203000",
          "100145.703000",
          "100148.203000",
          "100150.703000",
          "100153.203000",
          "100155.703000",
          "100158.203000",
          "100200.703000",
          "100203.203000",
          "100205.703000",
          "100208.203000",
          "100210.703000",
          "100213.203000",
          "100215.703000",
          "100218.203000",
          "100220.703000",
          "100223.203000",
          "100225.703000",
          "100228.203000",
          "100230.703000",
          "100233.203000",
          "100235.703000",
          "100238.203000",
          "100240.703000",
          "100243.203000",
          "100245.703000",
          "100248.203000",
          "100250.703000",
          "100253.203000",
          "100255.703000",
          "100258.203000",
          "100300.703000",
          "100303.203000",
          "100305.703000",
          "100308.203000",
          "100310.703000",
          "100313.203000",
          "100315.703000",
          "100318.203000",
          "100320.703000",
          "100323.203000",
          "100325.703000",
          "100328.203000",
          "100330.703000",
          "100333.203000",
          "100335.703000",
          "100338.203000",
          "100340.703000",
          "100343.203000",
          "100345.703000",
          "100348.203000",
          "100350.640000"
        ],
        "InstanceCreationTime": [
          "095703.234000",
          "095705.703000",
          "095708.203000",
          "095710.703000",
          "095713.203000",
          "095715.703000",
          "095718.203000",
          "095720.703000",
          "095723.203000",
          "095725.703000",
          "095728.203000",
          "095730.703000",
          "095733.203000",
          "095735.703000",
          "095738.203000",
          "095740.703000",
          "095743.203000",
          "095745.703000",
          "095748.203000",
          "095750.703000",
          "095753.203000",
          "095755.703000",
          "095758.203000",
          "095800.703000",
          "095803.203000",
          "095805.703000",
          "095808.203000",
          "095810.703000",
          "095813.203000",
          "095815.703000",
          "095818.203000",
          "095820.703000",
          "095823.203000",
          "095825.703000",
          "095828.203000",
          "095830.703000",
          "095833.203000",
          "095835.703000",
          "095838.203000",
          "095840.703000",
          "095843.203000",
          "095845.703000",
          "095848.203000",
          "095850.703000",
          "095853.203000",
          "095855.703000",
          "095858.203000",
          "095900.703000",
          "095903.203000",
          "095905.703000",
          "095908.203000",
          "095910.703000",
          "095913.203000",
          "095915.703000",
          "095918.203000",
          "095920.703000",
          "095923.203000",
          "095925.703000",
          "095928.203000",
          "095930.703000",
          "095933.203000",
          "095935.703000",
          "095938.203000",
          "095940.703000",
          "095943.203000",
          "095945.703000",
          "095948.203000",
          "095950.703000",
          "095953.203000",
          "095955.703000",
          "095958.203000",
          "100000.703000",
          "100003.203000",
          "100005.703000",
          "100008.203000",
          "100010.703000",
          "100013.203000",
          "100015.703000",
          "100018.203000",
          "100020.703000",
          "100023.203000",
          "100025.703000",
          "100028.203000",
          "100030.703000",
          "100033.203000",
          "100035.703000",
          "100038.203000",
          "100040.703000",
          "100043.203000",
          "100045.703000",
          "100048.203000",
          "100050.703000",
          "100053.203000",
          "100055.703000",
          "100058.203000",
          "100100.703000",
          "100103.203000",
          "100105.703000",
          "100108.203000",
          "100110.703000",
          "100113.203000",
          "100115.703000",
          "100118.203000",
          "100120.703000",
          "100123.203000",
          "100125.703000",
          "100128.203000",
          "100130.703000",
          "100133.203000",
          "100135.703000",
          "100138.203000",
          "100140.703000",
          "100143.203000",
          "100145.703000",
          "100148.203000",
          "100150.703000",
          "100153.203000",
          "100155.703000",
          "100158.203000",
          "100200.703000",
          "100203.203000",
          "100205.703000",
          "100208.203000",
          "100210.703000",
          "100213.203000",
          "100215.703000",
          "100218.203000",
          "100220.703000",
          "100223.203000",
          "100225.703000",
          "100228.203000",
          "100230.703000",
          "100233.203000",
          "100235.703000",
          "100238.203000",
          "100240.703000",
          "100243.203000",
          "100245.703000",
          "100248.203000",
          "100250.703000",
          "100253.203000",
          "100255.703000",
          "100258.203000",
          "100300.703000",
          "100303.203000",
          "100305.703000",
          "100308.203000",
          "100310.703000",
          "100313.203000",
          "100315.703000",
          "100318.203000",
          "100320.703000",
          "100323.203000",
          "100325.703000",
          "100328.203000",
          "100330.703000",
          "100333.203000",
          "100335.703000",
          "100338.203000",
          "100340.703000",
          "100343.203000",
          "100345.703000",
          "100348.203000",
          "100350.640000"
        ],
        "InstanceNumber": [
          1,
          2,
          3,
          4,
          5,
          6,
          7,
          8,
          9,
          10,
          11,
          12,
          13,
          14,
          15,
          16,
          17,
          18,
          19,
          20,
          21,
          22,
          23,
          24,
          25,
          26,
          27,
          28,
          29,
          30,
          31,
          32,
          33,
          34,
          35,
          36,
          37,
          38,
          39,
          40,
          41,
          42,
          43,
          44,
          45,
          46,
          47,
          48,
          49,
          50,
          51,
          52,
          53,
          54,
          55,
          56,
          57,
          58,
          59,
          60,
          61,
          62,
          63,
          64,
          65,
          66,
          67,
          68,
          69,
          70,
          71,
          72,
          73,
          74,
          75,
          76,
          77,
          78,
          79,
          80,
          81,
          82,
          83,
          84,
          85,
          86,
          87,
          88,
          89,
          90,
          91,
          92,
          93,
          94,
          95,
          96,
          97,
          98,
          99,
          100,
          101,
          102,
          103,
          104,
          105,
          106,
          107,
          108,
          109,
          110,
          111,
          112,
          113,
          114,
          115,
          116,
          117,
          118,
          119,
          120,
          121,
          122,
          123,
          124,
          125,
          126,
          127,
          128,
          129,
          130,
          131,
          132,
          133,
          134,
          135,
          136,
          137,
          138,
          139,
          140,
          141,
          142,
          143,
          144,
          145,
          146,
          147,
          148,
          149,
          150,
          151,
          152,
          153,
          154,
          155,
          156,
          157,
          158,
          159,
          160,
          161,
          162,
          163,
          164
        ],
        "LargestImagePixelValue": [
          1578,
          1495,
          1504,
          1506,
          1522,
          1521,
          1516,
          1528,
          1516,
          1501,
          1495,
          1502,
          1520,
          1527,
          1494,
          1478,
          1491,
          1502,
          1506,
          1482,
          1500,
          1509,
          1501,
          1494,
          1507,
          1501,
          1502,
          1482,
          1502,
          1514,
          1504,
          1516,
          1496,
          1505,
          1506,
          1514,
          1497,
          1498,
          1501,
          1507,
          1506,
          1524,
          1538,
          1537,
          1519,
          1517,
          1511,
          1490,
          1479,
          1475,
          1483,
          1487,
          1479,
          1470,
          1475,
          1499,
          1510,
          1509,
          1514,
          1513,
          1504,
          1506,
          1510,
          1518,
          1525,
          1532,
          1528,
          1515,
          1506,
          1526,
          1516,
          1511,
          1520,
          1516,
          1522,
          1514,
          1494,
          1484,
          1486,
          1488,
          1492,
          1507,
          1525,
          1537,
          1521,
          1529,
          1536,
          1508,
          1503,
          1519,
          1515,
          1509,
          1511,
          1513,
          1502,
          1493,
          1507,
          1520,
          1517,
          1525,
          1533,
          1515,
          1517,
          1512,
          1513,
          1510,
          1512,
          1514,
          1492,
          1493,
          1506,
          1520,
          1522,
          1541,
          1512,
          1511,
          1490,
          1511,
          1520,
          1508,
          1522,
          1512,
          1518,
          1535,
          1512,
          1512,
          1518,
          1522,
          1501,
          1493,
          1491,
          1509,
          1512,
          1514,
          1512,
          1519,
          1504,
          1517,
          1516,
          1505,
          1500,
          1521,
          1511,
          1501,
          1517,
          1521,
          1518,
          1502,
          1500,
          1500,
          1520,
          1510,
          1488,
          1521,
          1527,
          1510,
          1502,
          1493,
          1484,
          1492,
          1493,
          1519,
          1520,
          1503
        ],
        "WindowCenter": [
          647.0,
          645.0,
          646.0,
          646.0,
          645.0,
          646.0,
          645.0,
          646.0,
          647.0,
          646.0,
          645.0,
          647.0,
          646.0,
          645.0,
          645.0,
          645.0,
          646.0,
          645.0,
          645.0,
          645.0,
          645.0,
          645.0,
          646.0,
          646.0,
          647.0,
          647.0,
          647.0,
          645.0,
          645.0,
          645.0,
          647.0,
          646.0,
          646.0,
          645.0,
          647.0,
          647.0,
          647.0,
          646.0,
          646.0,
          645.0,
          644.0,
          645.0,
          645.0,
          647.0,
          647.0,
          646.0,
          645.0,
          645.0,
          645.0,
          646.0,
          646.0,
          646.0,
          645.0,
          645.0,
          646.0,
          646.0,
          645.0,
          645.0,
          645.0,
          645.0,
          645.0,
          645.0,
          645.0,
          644.0,
          644.0,
          644.0,
          646.0,
          646.0,
          645.0,
          645.0,
          646.0,
          646.0,
          646.0,
          645.0,
          646.0,
          644.0,
          645.0,
          644.0,
          646.0,
          645.0,
          645.0,
          646.0,
          645.0,
          645.0,
          645.0,
          643.0,
          645.0,
          644.0,
          644.0,
          644.0,
          644.0,
          644.0,
          645.0,
          646.0,
          644.0,
          644.0,
          644.0,
          643.0,
          643.0,
          643.0,
          644.0,
          644.0,
          645.0,
          644.0,
          645.0,
          645.0,
          644.0,
          644.0,
          643.0,
          645.0,
          645.0,
          643.0,
          643.0,
          644.0,
          644.0,
          645.0,
          643.0,
          642.0,
          644.0,
          645.0,
          646.0,
          644.0,
          644.0,
          645.0,
          645.0,
          644.0,
          645.0,
          644.0,
          645.0,
          644.0,
          643.0,
          643.0,
          643.0,
          644.0,
          643.0,
          644.0,
          644.0,
          644.0,
          643.0,
          643.0,
          643.0,
          643.0,
          645.0,
          643.0,
          642.0,
          643.0,
          643.0,
          642.0,
