{
  "aor": 0.002360609756097561,
  "aqi": 0.0021322098780487803,
  "bids_meta": {
    "AcquisitionMatrixPE": 64,
    "AcquisitionNumber": 1,
    "AcquisitionTime": "07:45:58.680000",
    "BandwidthPerPixelPhaseEncode": 26.483,
    "BaseResolution": 64,
    "BodyPartExamined": "HEAD",
    "CogAtlasID": "TODO",
    "ConversionSoftware": "dcm2niix",
    "ConversionSoftwareVersion": "v1.0.20171017 GCC6.3.0",
    "DerivedVendorReportedEchoSpacing": 0.000590001,
    "DeviceSerialNumber": "35177",
    "DwellTime": 4.1e-06,
    "EchoTime": 0.027,
    "EffectiveEchoSpacing": 0.000590001,
    "FlipAngle": 90,
    "ImageOrientationPatientDICOM": [
      0.997236,
      -0.0648561,
      0.0362523,
      0.0602086,
      0.991282,
      0.117194
    ],
    "ImageType": [
      "ORIGINAL",
      "PRIMARY",
      "M",
      "ND",
      "NORM",
      "MOSAIC"
    ],
    "InPlanePhaseEncodingDirectionDICOM": "COL",
    "InstitutionAddress": "Scott_Ave._4525_St._Louis_MO_US_63110",
    "InstitutionName": "Washington_University",
    "InstitutionalDepartmentName": "Department",
    "MRAcquisitionType": "2D",
    "MagneticFieldStrength": 3,
    "Manufacturer": "Siemens",
    "ManufacturersModelName": "TrioTim",
    "Modality": "MR",
    "PartialFourier": 1,
    "PatientPosition": "HFS",
    "PercentPhaseFOV": 100,
    "PhaseEncodingDirection": "j-",
    "PhaseEncodingSteps": 64,
    "PhaseResolution": 1,
    "PixelBandwidth": 1905,
    "ProcedureStepDescription": "head_GREENE",
    "ProtocolName": "ep2d_bold_rest1",
    "PulseSequenceDetails": "%SiemensSeq%_ep2d_bold",
    "ReceiveCoilName": "HeadMatrix",
    "ReconMatrixPE": 64,
    "RepetitionTime": 2.5,
    "SAR": 0.162777,
    "ScanOptions": "FS",
    "ScanningSequence": "EP",
    "SequenceName": "_epfid2d1_64",
    "SequenceVariant": "SK",
    "SeriesDescription": "ep2d_bold_rest1",
    "SeriesNumber": 6,
    "ShimSetting": [
      -208,
      -18758,
      7392,
      -133,
      -18,
      1559,
      790,
      -65
    ],
    "SliceThickness": 4,
    "SliceTiming": [
      1.255,
      0,
      1.3325,
      0.0775,
      1.41,
      0.1575,
      1.49,
      0.235,
      1.5675,
      0.3125,
      1.6475,
      0.3925,
      1.725,
      0.47,
      1.8025,
      0.5475,
      1.8825,
      0.6275,
      1.96,
      0.705,
      2.0375,
      0.785,
      2.1175,
      0.8625,
      2.195,
      0.94,
      2.275,
      1.02,
      2.3525,
      1.0975,
      2.43,
      1.175
    ],
    "SoftwareVersions": "syngo_MR_B17",
    "SpacingBetweenSlices": 4,
    "StationName": "MRC35177",
    "TaskName": "restbaseline",
    "TotalReadoutTime": 0.0371701,
    "TxRefAmp": 345.106,
    "dataset": "ds000256",
    "dcmmeta_affine": [
      [
        -3.988943576812744,
        0.2408342808485031,
        0.17414778470993042,
        119.68867492675781
      ],
      [
        0.2594242990016937,
        3.9651291370391846,
        0.4587474465370178,
        -146.45001220703125
      ],
      [
        0.14500916004180908,
        -0.46877413988113403,
        3.969787120819092,
        -17.988414764404297
      ],
      [
        0.0,
        0.0,
        0.0,
        1.0
      ]
    ],
    "dcmmeta_reorient_transform": [
      [
        0.0,
        -1.0,
        0.0,
        63.0
      ],
      [
        1.0,
        0.0,
        0.0,
        0.0
      ],
      [
        0.0,
        0.0,
        1.0,
        0.0
      ],
      [
        0.0,
        0.0,
        0.0,
        1.0
      ]
    ],
    "dcmmeta_shape": [
      64,
      64,
      32,
      164
    ],
    "dcmmeta_slice_dim": 2,
    "dcmmeta_version": 0.6,
    "global": {
      "const": {
        "AccessionNumber": ".",
        "AcquisitionMatrix": [
          64,
          0,
          0,
          64
        ],
        "AngioFlag": "N",
        "BitsAllocated": 16,
        "BitsStored": 12,
        "BodyPartExamined": "HEAD",
        "Columns": 384,
        "DeidentificationMethodCodeSequence": [
          {
            "CodeMeaning": "XNAT Edit Script",
            "CodeValue": "625500",
            "CodingSchemeDesignator": "XNAT",
            "CodingSchemeVersion": "0.1"
          }
        ],
        "EchoNumbers": 1,
        "EchoTime": 27.0,
        "EchoTrainLength": 1,
        "FlipAngle": 90.0,
        "HighBit": 11,
        "ImageOrientationPatient": [
          0.99723591031084,
          -0.0648560772519,
          0.0362522886173,
          0.06020856947662,
          0.99128230222318,
          0.11719353847673
        ],
        "ImagePositionPatient": [
          -811.62569973282,
          -696.26590485719,
          -145.72651643929
        ],
        "ImageType": [
          "ORIGINAL",
          "PRIMARY",
          "M",
          "ND",
          "NORM",
          "MOSAIC"
        ],
        "ImagedNucleus": "1H",
        "ImagingFrequency": 123.256177,
        "InPlanePhaseEncodingDirection": "COL",
        "MRAcquisitionType": "2D",
        "MagneticFieldStrength": 3.0,
        "Manufacturer": "SIEMENS",
        "ManufacturerModelName": "TrioTim",
        "Modality": "MR",
        "NumberOfAverages": 1.0,
        "NumberOfPhaseEncodingSteps": 64,
        "PercentPhaseFieldOfView": 100.0,
        "PercentSampling": 100.0,
        "PerformedProcedureStepStartTime": "074016.093000",
        "PhotometricInterpretation": "MONOCHROME2",
        "PixelBandwidth": 1905.0,
        "PixelRepresentation": 0,
        "PixelSpacing": [
          4.0,
          4.0
        ],
        "PositionReferenceIndicator": "",
        "ProtocolName": "ep2d_bold_rest1",
        "RepetitionTime": 2500.0,
        "Rows": 384,
        "SAR": 0.16277656032394,
        "SamplesPerPixel": 1,
        "ScanOptions": "FS",
        "ScanningSequence": "EP",
        "SequenceName": "*epfid2d1_64",
        "SequenceVariant": "SK",
        "SeriesDescription": "ep2d_bold_rest1",
        "SeriesNumber": 6,
        "SeriesTime": "074601.171000",
        "SliceLocation": -29.437570581578,
        "SliceThickness": 4.0,
        "SmallestImagePixelValue": 0,
        "SoftwareVersions": "syngo MR B17",
        "SpacingBetweenSlices": 3.9999983507044,
        "SpecificCharacterSet": "ISO_IR 100",
        "StudyID": "1",
        "StudyTime": "074016.046000",
        "TransmitCoilName": "Body",
        "VariableFlipAngleFlag": "N",
        "WindowCenterWidthExplanation": "Algo1",
        "dBdt": 0.0
      },
      "slices": {}
    },
    "modality": "bold",
    "subject_id": "CTS237",
    "task_id": "restbaseline",
    "time": {
      "samples": {
        "AcquisitionNumber": [
          1,
          2,
          3,
          4,
          5,
          6,
          7,
          8,
          9,
          10,
          11,
          12,
          13,
          14,
          15,
          16,
          17,
          18,
          19,
          20,
          21,
          22,
          23,
          24,
          25,
          26,
          27,
          28,
          29,
          30,
          31,
          32,
          33,
          34,
          35,
          36,
          37,
          38,
          39,
          40,
          41,
          42,
          43,
          44,
          45,
          46,
          47,
          48,
          49,
          50,
          51,
          52,
          53,
          54,
          55,
          56,
          57,
          58,
          59,
          60,
          61,
          62,
          63,
          64,
          65,
          66,
          67,
          68,
          69,
          70,
          71,
          72,
          73,
          74,
          75,
          76,
          77,
          78,
          79,
          80,
          81,
          82,
          83,
          84,
          85,
          86,
          87,
          88,
          89,
          90,
          91,
          92,
          93,
          94,
          95,
          96,
          97,
          98,
          99,
          100,
          101,
          102,
          103,
          104,
          105,
          106,
          107,
          108,
          109,
          110,
          111,
          112,
          113,
          114,
          115,
          116,
          117,
          118,
          119,
          120,
          121,
          122,
          123,
          124,
          125,
          126,
          127,
          128,
          129,
          130,
          131,
          132,
          133,
          134,
          135,
          136,
          137,
          138,
          139,
          140,
          141,
          142,
          143,
          144,
          145,
          146,
          147,
          148,
          149,
          150,
          151,
          152,
          153,
          154,
          155,
          156,
          157,
          158,
          159,
          160,
          161,
          162,
          163,
          164
        ],
        "AcquisitionTime": [
          "074558.680000",
          "074601.190000",
          "074603.700000",
          "074606.210000",
          "074608.720000",
          "074611.230000",
          "074613.740000",
          "074616.250000",
          "074618.760000",
          "074621.270000",
          "074623.780000",
          "074626.290000",
          "074628.800000",
          "074631.310000",
          "074633.820000",
          "074636.330000",
          "074638.840000",
          "074641.350000",
          "074643.860000",
          "074646.370000",
          "074648.880000",
          "074651.390000",
          "074653.900000",
          "074656.410000",
          "074658.920000",
          "074701.430000",
          "074703.940000",
          "074706.450000",
          "074708.960000",
          "074711.470000",
          "074713.980000",
          "074716.490000",
          "074719.000000",
          "074721.510000",
          "074724.020000",
          "074726.530000",
          "074729.040000",
          "074731.550000",
          "074734.060000",
          "074736.570000",
          "074739.080000",
          "074741.590000",
          "074744.100000",
          "074746.610000",
          "074749.120000",
          "074751.630000",
          "074754.140000",
          "074756.650000",
          "074759.162500",
          "074801.672500",
          "074804.182500",
          "074806.692500",
          "074809.202500",
          "074811.712500",
          "074814.222500",
          "074816.732500",
          "074819.242500",
          "074821.752500",
          "074824.262500",
          "074826.772500",
          "074829.282500",
          "074831.792500",
          "074834.302500",
          "074836.812500",
          "074839.322500",
          "074841.832500",
          "074844.342500",
          "074846.852500",
          "074849.362500",
          "074851.872500",
          "074854.382500",
          "074856.892500",
          "074859.402500",
          "074901.912500",
          "074904.422500",
          "074906.932500",
          "074909.442500",
          "074911.952500",
          "074914.462500",
          "074916.972500",
          "074919.482500",
          "074921.992500",
          "074924.502500",
          "074927.012500",
          "074929.522500",
          "074932.032500",
          "074934.542500",
          "074937.052500",
          "074939.562500",
          "074942.072500",
          "074944.582500",
          "074947.092500",
          "074949.602500",
          "074952.112500",
          "074954.622500",
          "074957.132500",
          "074959.642500",
          "075002.152500",
          "075004.662500",
          "075007.172500",
          "075009.682500",
          "075012.192500",
          "075014.702500",
          "075017.212500",
          "075019.722500",
          "075022.232500",
          "075024.742500",
          "075027.252500",
          "075029.762500",
          "075032.272500",
          "075034.785000",
          "075037.295000",
          "075039.805000",
          "075042.315000",
          "075044.825000",
          "075047.335000",
          "075049.845000",
          "075052.355000",
          "075054.865000",
          "075057.375000",
          "075059.885000",
          "075102.395000",
          "075104.905000",
          "075107.415000",
          "075109.925000",
          "075112.435000",
          "075114.945000",
          "075117.455000",
          "075119.965000",
          "075122.475000",
          "075124.985000",
          "075127.495000",
          "075130.005000",
          "075132.515000",
          "075135.025000",
          "075137.535000",
          "075140.045000",
          "075142.555000",
          "075145.065000",
          "075147.575000",
          "075150.085000",
          "075152.595000",
          "075155.105000",
          "075157.615000",
          "075200.125000",
          "075202.635000",
          "075205.145000",
          "075207.655000",
          "075210.165000",
          "075212.675000",
          "075215.185000",
          "075217.695000",
          "075220.205000",
          "075222.715000",
          "075225.225000",
          "075227.735000",
          "075230.245000",
          "075232.755000",
          "075235.265000",
          "075237.775000",
          "075240.285000",
          "075242.795000",
          "075245.305000",
          "075247.815000"
        ],
        "ContentTime": [
          "074601.171000",
          "074603.671000",
          "074606.171000",
          "074608.671000",
          "074611.171000",
          "074613.671000",
          "074616.171000",
          "074618.671000",
          "074621.171000",
          "074623.671000",
          "074626.171000",
          "074628.671000",
          "074631.171000",
          "074633.671000",
          "074636.171000",
          "074638.671000",
          "074641.171000",
          "074643.671000",
          "074646.171000",
          "074648.671000",
          "074651.171000",
          "074653.671000",
          "074656.171000",
          "074658.671000",
          "074701.171000",
          "074703.671000",
          "074706.171000",
          "074708.671000",
          "074711.171000",
          "074713.671000",
          "074716.171000",
          "074718.671000",
          "074721.171000",
          "074723.671000",
          "074726.171000",
          "074728.671000",
          "074731.171000",
          "074733.671000",
          "074736.171000",
          "074738.671000",
          "074741.171000",
          "074743.671000",
          "074746.171000",
          "074748.671000",
          "074751.171000",
          "074753.671000",
          "074756.171000",
          "074758.671000",
          "074801.171000",
          "074803.671000",
          "074806.171000",
          "074808.671000",
          "074811.171000",
          "074813.671000",
          "074816.171000",
          "074818.671000",
          "074821.171000",
          "074823.671000",
          "074826.171000",
          "074828.671000",
          "074831.171000",
          "074833.671000",
          "074836.171000",
          "074838.671000",
          "074841.171000",
          "074843.671000",
          "074846.171000",
          "074848.671000",
          "074851.171000",
          "074853.671000",
          "074856.171000",
          "074858.671000",
          "074901.171000",
          "074903.671000",
          "074906.171000",
          "074908.671000",
          "074911.171000",
          "074913.671000",
          "074916.171000",
          "074918.671000",
          "074921.171000",
          "074923.671000",
          "074926.171000",
          "074928.671000",
          "074931.171000",
          "074933.671000",
          "074936.171000",
          "074938.671000",
          "074941.171000",
          "074943.671000",
          "074946.171000",
          "074948.671000",
          "074951.171000",
          "074953.671000",
          "074956.171000",
          "074958.671000",
          "075001.171000",
          "075003.671000",
          "075006.171000",
          "075008.671000",
          "075011.171000",
          "075013.671000",
          "075016.171000",
          "075018.671000",
          "075021.171000",
          "075023.671000",
          "075026.171000",
          "075028.671000",
          "075031.171000",
          "075033.671000",
          "075036.171000",
          "075038.671000",
          "075041.171000",
          "075043.671000",
          "075046.171000",
          "075048.671000",
          "075051.171000",
          "075053.671000",
          "075056.171000",
          "075058.671000",
          "075101.171000",
          "075103.671000",
          "075106.171000",
          "075108.671000",
          "075111.171000",
          "075113.671000",
          "075116.171000",
          "075118.671000",
          "075121.171000",
          "075123.671000",
          "075126.171000",
          "075128.671000",
          "075131.171000",
          "075133.671000",
          "075136.171000",
          "075138.671000",
          "075141.171000",
          "075143.671000",
          "075146.171000",
          "075148.671000",
          "075151.171000",
          "075153.671000",
          "075156.171000",
          "075158.671000",
          "075201.171000",
          "075203.671000",
          "075206.171000",
          "075208.671000",
          "075211.171000",
          "075213.671000",
          "075216.171000",
          "075218.671000",
          "075221.171000",
          "075223.671000",
          "075226.171000",
          "075228.671000",
          "075231.171000",
          "075233.671000",
          "075236.171000",
          "075238.671000",
          "075241.171000",
          "075243.671000",
          "075246.171000",
          "075248.406000"
        ],
        "InstanceCreationTime": [
          "074601.171000",
          "074603.671000",
          "074606.171000",
          "074608.671000",
          "074611.171000",
          "074613.671000",
          "074616.171000",
          "074618.671000",
          "074621.171000",
          "074623.671000",
          "074626.171000",
          "074628.671000",
          "074631.171000",
          "074633.671000",
          "074636.171000",
          "074638.671000",
          "074641.171000",
          "074643.671000",
          "074646.171000",
          "074648.671000",
          "074651.171000",
          "074653.671000",
          "074656.171000",
          "074658.671000",
          "074701.171000",
          "074703.671000",
          "074706.171000",
          "074708.671000",
          "074711.171000",
          "074713.671000",
          "074716.171000",
          "074718.671000",
          "074721.171000",
          "074723.671000",
          "074726.171000",
          "074728.671000",
          "074731.171000",
          "074733.671000",
          "074736.171000",
          "074738.671000",
          "074741.171000",
          "074743.671000",
          "074746.171000",
          "074748.671000",
          "074751.171000",
          "074753.671000",
          "074756.171000",
          "074758.671000",
          "074801.171000",
          "074803.671000",
          "074806.171000",
          "074808.671000",
          "074811.171000",
          "074813.671000",
          "074816.171000",
          "074818.671000",
          "074821.171000",
          "074823.671000",
          "074826.171000",
          "074828.671000",
          "074831.171000",
          "074833.671000",
          "074836.171000",
          "074838.671000",
          "074841.171000",
          "074843.671000",
          "074846.171000",
          "074848.671000",
          "074851.171000",
          "074853.671000",
          "074856.171000",
          "074858.671000",
          "074901.171000",
          "074903.671000",
          "074906.171000",
          "074908.671000",
          "074911.171000",
          "074913.671000",
          "074916.171000",
          "074918.671000",
          "074921.171000",
          "074923.671000",
          "074926.171000",
          "074928.671000",
          "074931.171000",
          "074933.671000",
          "074936.171000",
          "074938.671000",
          "074941.171000",
          "074943.671000",
          "074946.171000",
          "074948.671000",
          "074951.171000",
          "074953.671000",
          "074956.171000",
          "074958.671000",
          "075001.171000",
          "075003.671000",
          "075006.171000",
          "075008.671000",
          "075011.171000",
          "075013.671000",
          "075016.171000",
          "075018.671000",
          "075021.171000",
          "075023.671000",
          "075026.171000",
          "075028.671000",
          "075031.171000",
          "075033.671000",
          "075036.171000",
          "075038.671000",
          "075041.171000",
          "075043.671000",
          "075046.171000",
          "075048.671000",
          "075051.171000",
          "075053.671000",
          "075056.171000",
          "075058.671000",
          "075101.171000",
          "075103.671000",
          "075106.171000",
          "075108.671000",
          "075111.171000",
          "075113.671000",
          "075116.171000",
          "075118.671000",
          "075121.171000",
          "075123.671000",
          "075126.171000",
          "075128.671000",
          "075131.171000",
          "075133.671000",
          "075136.171000",
          "075138.671000",
          "075141.171000",
          "075143.671000",
          "075146.171000",
          "075148.671000",
          "075151.171000",
          "075153.671000",
          "075156.171000",
          "075158.671000",
          "075201.171000",
          "075203.671000",
          "075206.171000",
          "075208.671000",
          "075211.171000",
          "075213.671000",
          "075216.171000",
          "075218.671000",
          "075221.171000",
          "075223.671000",
          "075226.171000",
          "075228.671000",
          "075231.171000",
          "075233.671000",
          "075236.171000",
          "075238.671000",
          "075241.171000",
          "075243.671000",
          "075246.171000",
          "075248.406000"
        ],
        "InstanceNumber": [
          1,
          2,
          3,
          4,
          5,
          6,
          7,
          8,
          9,
          10,
          11,
          12,
          13,
          14,
          15,
          16,
          17,
          18,
          19,
          20,
          21,
          22,
          23,
          24,
          25,
          26,
          27,
          28,
          29,
          30,
          31,
          32,
          33,
          34,
          35,
          36,
          37,
          38,
          39,
          40,
          41,
          42,
          43,
          44,
          45,
          46,
          47,
          48,
          49,
          50,
          51,
          52,
          53,
          54,
          55,
          56,
          57,
          58,
          59,
          60,
          61,
          62,
          63,
          64,
          65,
          66,
          67,
          68,
          69,
          70,
          71,
          72,
          73,
          74,
          75,
          76,
          77,
          78,
          79,
          80,
          81,
          82,
          83,
          84,
          85,
          86,
          87,
          88,
          89,
          90,
          91,
          92,
          93,
          94,
          95,
          96,
          97,
          98,
          99,
          100,
          101,
          102,
          103,
          104,
          105,
          106,
          107,
          108,
          109,
          110,
          111,
          112,
          113,
          114,
          115,
          116,
          117,
          118,
          119,
          120,
          121,
          122,
          123,
          124,
          125,
          126,
          127,
          128,
          129,
          130,
          131,
          132,
          133,
          134,
          135,
          136,
          137,
          138,
          139,
          140,
          141,
          142,
          143,
          144,
          145,
          146,
          147,
          148,
          149,
          150,
          151,
          152,
          153,
          154,
          155,
          156,
          157,
          158,
          159,
          160,
          161,
          162,
          163,
          164
        ],
        "LargestImagePixelValue": [
          1891,
          1882,
          1846,
          1920,
          1911,
          1915,
          1914,
          1854,
          1873,
          1899,
          1890,
          1869,
          1869,
          1875,
          1930,
          1829,
          1898,
          1849,
          1909,
          1904,
          1925,
          1920,
          1899,
          1857,
          1780,
          1943,
          1930,
          1857,
          1885,
          1833,
          1861,
          1870,
          1890,
          1902,
          1910,
          1835,
          1881,
          1955,
          1761,
          1952,
          1907,
          1853,
          1894,
          1812,
          1875,
          1919,
          1906,
          1887,
          1818,
          1936,
          1905,
          1917,
          1900,
          1926,
          1884,
          1855,
          1854,
          1935,
          1913,
          1907,
          1847,
          1832,
          1900,
          1910,
          1921,
          1860,
          1858,
          1911,
          1907,
          1898,
          1812,
          1899,
          1938,
          1862,
          1841,
          1888,
          1903,
          1831,
          1861,
          1829,
          1885,
          1883,
          1836,
          1918,
          1885,
          1917,
          1912,
          1885,
          1913,
          1852,
          1936,
          1870,
          1883,
          1852,
          1924,
          1903,
          1834,
          1939,
          1826,
          1885,
          1913,
          1847,
          1841,
          1916,
          1917,
          1913,
          1858,
          1871,
          1916,
          1915,
          1899,
          1950,
          1910,
          1843,
          1795,
          1868,
          1923,
          1828,
          1845,
          1875,
          1897,
          1874,
          1883,
          1881,
          1957,
          1906,
          1878,
          1868,
          1911,
          1908,
          1941,
          1860,
          1871,
          1866,
          1848,
          1859,
          1939,
          1878,
          1881,
          1883,
          1847,
          1923,
          1927,
          1868,
          1949,
          1871,
          1871,
          1891,
          1905,
          1890,
          1865,
          1876,
          1904,
          1886,
          1949,
          1803,
          1892,
          1858,
          1965,
          1851,
          1831,
          2008,
          1890,
          1926
        ],
        "WindowCenter": [
          692.0,
          692.0,
          692.0,
          692.0,
          691.0,
          690.0,
          691.0,
          692.0,
          691.0,
          692.0,
          693.0,
          695.0,
          692.0,
          691.0,
          692.0,
          693.0,
          691.0,
          691.0,
          692.0,
          692.0,
          692.0,
          690.0,
          689.0,
          692.0,
          692.0,
          694.0,
          692.0,
          692.0,
          691.0,
          693.0,
          691.0,
          692.0,
          692.0,
          693.0,
          694.0,
          693.0,
          691.0,
          694.0,
          696.0,
          693.0,
          692.0,
          695.0,
          693.0,
          691.0,
          692.0,
          696.0,
          691.0,
          690.0,
          698.0,
          692.0,
          693.0,
          693.0,
          693.0,
          690.0,
          691.0,
          691.0,
          691.0,
          694.0,
          693.0,
          692.0,
          694.0,
          693.0,
          691.0,
          692.0,
          691.0,
          692.0,
          693.0,
          692.0,
          693.0,
          691.0,
          693.0,
          692.0,
          692.0,
          692.0,
          693.0,
          694.0,
          692.0,
          696.0,
          692.0,
          692.0,
          695.0,
          693.0,
          691.0,
          693.0,
          695.0,
          691.0,
          691.0,
          696.0,
          692.0,
          691.0,
          694.0,
          692.0,
          692.0,
          692.0,
          692.0,
          692.0,
          694.0,
          692.0,
          691.0,
          692.0,
          691.0,
          692.0,
          697.0,
          693.0,
          693.0,
          696.0,
          692.0,
          692.0,
          693.0,
          691.0,
          696.0,
          692.0,
          692.0,
          692.0,
          691.0,
          694.0,
          696.0,
          694.0,
          693.0,
          694.0,
          692.0,
          693.0,
          692.0,
          694.0,
          693.0,
          693.0,
          692.0,
          692.0,
          692.0,
          692.0,
          693.0,
          695.0,
          690.0,
          692.0,
          693.0,
          693.0,
          692.0,
          693.0,
          691.0,
          693.0,
          692.0,
          693.0,
          692.0,
          690.0,
          693.0,
          693.0,
          692.0,
          693.0,
          696.0,
          693.0,
          691.0,
