{
  "aor": 0.0040500609756097565,
  "aqi": 0.003889954512195123,
  "bids_meta": {
    "AcquisitionMatrixPE": 64,
    "AcquisitionNumber": 1,
    "AcquisitionTime": "08:09:29.225000",
    "BandwidthPerPixelPhaseEncode": 26.483,
    "BaseResolution": 64,
    "BodyPartExamined": "HEAD",
    "CogAtlasID": "TODO",
    "ConversionSoftware": "dcm2niix",
    "ConversionSoftwareVersion": "v1.0.20171017 GCC6.3.0",
    "DerivedVendorReportedEchoSpacing": 0.000590001,
    "DeviceSerialNumber": "35177",
    "DwellTime": 4.1e-06,
    "EchoTime": 0.027,
    "EffectiveEchoSpacing": 0.000590001,
    "FlipAngle": 90,
    "ImageOrientationPatientDICOM": [
      0.997236,
      -0.0648561,
      0.0362523,
      0.0602086,
      0.991282,
      0.117194
    ],
    "ImageType": [
      "ORIGINAL",
      "PRIMARY",
      "M",
      "ND",
      "NORM",
      "MOSAIC"
    ],
    "InPlanePhaseEncodingDirectionDICOM": "COL",
    "InstitutionAddress": "Scott_Ave._4525_St._Louis_MO_US_63110",
    "InstitutionName": "Washington_University",
    "InstitutionalDepartmentName": "Department",
    "MRAcquisitionType": "2D",
    "MagneticFieldStrength": 3,
    "Manufacturer": "Siemens",
    "ManufacturersModelName": "TrioTim",
    "Modality": "MR",
    "PartialFourier": 1,
    "PatientPosition": "HFS",
    "PercentPhaseFOV": 100,
    "PhaseEncodingDirection": "j-",
    "PhaseEncodingSteps": 64,
    "PhaseResolution": 1,
    "PixelBandwidth": 1905,
    "ProcedureStepDescription": "head_GREENE",
    "ProtocolName": "ep2d_bold_nonad_rest",
    "PulseSequenceDetails": "%SiemensSeq%_ep2d_bold",
    "ReceiveCoilName": "HeadMatrix",
    "ReconMatrixPE": 64,
    "RepetitionTime": 2.5,
    "SAR": 0.162777,
    "ScanOptions": "FS",
    "ScanningSequence": "EP",
    "SequenceName": "_epfid2d1_64",
    "SequenceVariant": "SK",
    "SeriesDescription": "ep2d_bold_nonad_rest",
    "SeriesNumber": 9,
    "ShimSetting": [
      -208,
      -18758,
      7392,
      -133,
      -18,
      1559,
      790,
      -65
    ],
    "SliceThickness": 4,
    "SliceTiming": [
      1.255,
      0,
      1.3325,
      0.08,
      1.4125,
      0.1575,
      1.49,
      0.235,
      1.57,
      0.315,
      1.6475,
      0.3925,
      1.725,
      0.47,
      1.805,
      0.55,
      1.8825,
      0.6275,
      1.96,
      0.7075,
      2.04,
      0.785,
      2.1175,
      0.8625,
      2.1975,
      0.9425,
      2.275,
      1.02,
      2.3525,
      1.0975,
      2.4325,
      1.1775
    ],
    "SoftwareVersions": "syngo_MR_B17",
    "SpacingBetweenSlices": 4,
    "StationName": "MRC35177",
    "TaskName": "restfixationfixed",
    "TotalReadoutTime": 0.0371701,
    "TxRefAmp": 345.106,
    "dataset": "ds000256",
    "dcmmeta_affine": [
      [
        -3.988943576812744,
        0.2408342808485031,
        0.17414778470993042,
        119.68867492675781
      ],
      [
        0.2594242990016937,
        3.9651291370391846,
        0.4587474465370178,
        -146.45001220703125
      ],
      [
        0.14500916004180908,
        -0.46877413988113403,
        3.969787120819092,
        -17.988414764404297
      ],
      [
        0.0,
        0.0,
        0.0,
        1.0
      ]
    ],
    "dcmmeta_reorient_transform": [
      [
        0.0,
        -1.0,
        0.0,
        63.0
      ],
      [
        1.0,
        0.0,
        0.0,
        0.0
      ],
      [
        0.0,
        0.0,
        1.0,
        0.0
      ],
      [
        0.0,
        0.0,
        0.0,
        1.0
      ]
    ],
    "dcmmeta_shape": [
      64,
      64,
      32,
      164
    ],
    "dcmmeta_slice_dim": 2,
    "dcmmeta_version": 0.6,
    "global": {
      "const": {
        "AccessionNumber": ".",
        "AcquisitionMatrix": [
          64,
          0,
          0,
          64
        ],
        "AngioFlag": "N",
        "BitsAllocated": 16,
        "BitsStored": 12,
        "BodyPartExamined": "HEAD",
        "Columns": 384,
        "DeidentificationMethodCodeSequence": [
          {
            "CodeMeaning": "XNAT Edit Script",
            "CodeValue": "625500",
            "CodingSchemeDesignator": "XNAT",
            "CodingSchemeVersion": "0.1"
          }
        ],
        "EchoNumbers": 1,
        "EchoTime": 27.0,
        "EchoTrainLength": 1,
        "FlipAngle": 90.0,
        "HighBit": 11,
        "ImageOrientationPatient": [
          0.99723591031084,
          -0.0648560772519,
          0.0362522886173,
          0.06020856947662,
          0.99128230222318,
          0.11719353847673
        ],
        "ImagePositionPatient": [
          -811.62569973282,
          -696.26590485719,
          -145.72651643929
        ],
        "ImageType": [
          "ORIGINAL",
          "PRIMARY",
          "M",
          "ND",
          "NORM",
          "MOSAIC"
        ],
        "ImagedNucleus": "1H",
        "ImagingFrequency": 123.25618,
        "InPlanePhaseEncodingDirection": "COL",
        "MRAcquisitionType": "2D",
        "MagneticFieldStrength": 3.0,
        "Manufacturer": "SIEMENS",
        "ManufacturerModelName": "TrioTim",
        "Modality": "MR",
        "NumberOfAverages": 1.0,
        "NumberOfPhaseEncodingSteps": 64,
        "PercentPhaseFieldOfView": 100.0,
        "PercentSampling": 100.0,
        "PerformedProcedureStepStartTime": "074016.093000",
        "PhotometricInterpretation": "MONOCHROME2",
        "PixelBandwidth": 1905.0,
        "PixelRepresentation": 0,
        "PixelSpacing": [
          4.0,
          4.0
        ],
        "PositionReferenceIndicator": "",
        "ProtocolName": "ep2d_bold_nonad_rest",
        "RepetitionTime": 2500.0,
        "Rows": 384,
        "SAR": 0.16277656032394,
        "SamplesPerPixel": 1,
        "ScanOptions": "FS",
        "ScanningSequence": "EP",
        "SequenceName": "*epfid2d1_64",
        "SequenceVariant": "SK",
        "SeriesDescription": "ep2d_bold_nonad_rest",
        "SeriesNumber": 9,
        "SeriesTime": "080931.468000",
        "SliceLocation": -29.437570581578,
        "SliceThickness": 4.0,
        "SmallestImagePixelValue": 0,
        "SoftwareVersions": "syngo MR B17",
        "SpacingBetweenSlices": 3.9999983507044,
        "SpecificCharacterSet": "ISO_IR 100",
        "StudyID": "1",
        "StudyTime": "074016.046000",
        "TransmitCoilName": "Body",
        "VariableFlipAngleFlag": "N",
        "WindowCenterWidthExplanation": "Algo1",
        "dBdt": 0.0
      },
      "slices": {}
    },
    "modality": "bold",
    "subject_id": "CTS237",
    "task_id": "restfixationfixed",
    "time": {
      "samples": {
        "AcquisitionNumber": [
          1,
          2,
          3,
          4,
          5,
          6,
          7,
          8,
          9,
          10,
          11,
          12,
          13,
          14,
          15,
          16,
          17,
          18,
          19,
          20,
          21,
          22,
          23,
          24,
          25,
          26,
          27,
          28,
          29,
          30,
          31,
          32,
          33,
          34,
          35,
          36,
          37,
          38,
          39,
          40,
          41,
          42,
          43,
          44,
          45,
          46,
          47,
          48,
          49,
          50,
          51,
          52,
          53,
          54,
          55,
          56,
          57,
          58,
          59,
          60,
          61,
          62,
          63,
          64,
          65,
          66,
          67,
          68,
          69,
          70,
          71,
          72,
          73,
          74,
          75,
          76,
          77,
          78,
          79,
          80,
          81,
          82,
          83,
          84,
          85,
          86,
          87,
          88,
          89,
          90,
          91,
          92,
          93,
          94,
          95,
          96,
          97,
          98,
          99,
          100,
          101,
          102,
          103,
          104,
          105,
          106,
          107,
          108,
          109,
          110,
          111,
          112,
          113,
          114,
          115,
          116,
          117,
          118,
          119,
          120,
          121,
          122,
          123,
          124,
          125,
          126,
          127,
          128,
          129,
          130,
          131,
          132,
          133,
          134,
          135,
          136,
          137,
          138,
          139,
          140,
          141,
          142,
          143,
          144,
          145,
          146,
          147,
          148,
          149,
          150,
          151,
          152,
          153,
          154,
          155,
          156,
          157,
          158,
          159,
          160,
          161,
          162,
          163,
          164
        ],
        "AcquisitionTime": [
          "080929.225000",
          "080931.735000",
          "080934.245000",
          "080936.755000",
          "080939.265000",
          "080941.775000",
          "080944.285000",
          "080946.795000",
          "080949.305000",
          "080951.815000",
          "080954.325000",
          "080956.835000",
          "080959.345000",
          "081001.855000",
          "081004.365000",
          "081006.875000",
          "081009.385000",
          "081011.895000",
          "081014.405000",
          "081016.915000",
          "081019.425000",
          "081021.935000",
          "081024.445000",
          "081026.955000",
          "081029.465000",
          "081031.977500",
          "081034.487500",
          "081036.997500",
          "081039.507500",
          "081042.017500",
          "081044.527500",
          "081047.037500",
          "081049.547500",
          "081052.057500",
          "081054.567500",
          "081057.077500",
          "081059.587500",
          "081102.097500",
          "081104.607500",
          "081107.117500",
          "081109.627500",
          "081112.137500",
          "081114.647500",
          "081117.157500",
          "081119.667500",
          "081122.177500",
          "081124.687500",
          "081127.197500",
          "081129.707500",
          "081132.217500",
          "081134.727500",
          "081137.237500",
          "081139.747500",
          "081142.257500",
          "081144.767500",
          "081147.277500",
          "081149.787500",
          "081152.297500",
          "081154.807500",
          "081157.317500",
          "081159.827500",
          "081202.337500",
          "081204.847500",
          "081207.357500",
          "081209.867500",
          "081212.377500",
          "081214.887500",
          "081217.397500",
          "081219.907500",
          "081222.417500",
          "081224.927500",
          "081227.437500",
          "081229.947500",
          "081232.457500",
          "081234.967500",
          "081237.477500",
          "081239.987500",
          "081242.497500",
          "081245.007500",
          "081247.517500",
          "081250.027500",
          "081252.537500",
          "081255.047500",
          "081257.557500",
          "081300.067500",
          "081302.577500",
          "081305.087500",
          "081307.600000",
          "081310.110000",
          "081312.620000",
          "081315.130000",
          "081317.640000",
          "081320.150000",
          "081322.660000",
          "081325.170000",
          "081327.680000",
          "081330.190000",
          "081332.700000",
          "081335.210000",
          "081337.720000",
          "081340.230000",
          "081342.740000",
          "081345.250000",
          "081347.760000",
          "081350.270000",
          "081352.780000",
          "081355.290000",
          "081357.800000",
          "081400.310000",
          "081402.820000",
          "081405.330000",
          "081407.840000",
          "081410.350000",
          "081412.860000",
          "081415.370000",
          "081417.880000",
          "081420.390000",
          "081422.900000",
          "081425.410000",
          "081427.920000",
          "081430.430000",
          "081432.940000",
          "081435.450000",
          "081437.960000",
          "081440.470000",
          "081442.980000",
          "081445.490000",
          "081448.000000",
          "081450.510000",
          "081453.020000",
          "081455.530000",
          "081458.040000",
          "081500.550000",
          "081503.060000",
          "081505.570000",
          "081508.080000",
          "081510.590000",
          "081513.100000",
          "081515.610000",
          "081518.120000",
          "081520.630000",
          "081523.140000",
          "081525.650000",
          "081528.160000",
          "081530.670000",
          "081533.180000",
          "081535.690000",
          "081538.200000",
          "081540.710000",
          "081543.222500",
          "081545.732500",
          "081548.242500",
          "081550.752500",
          "081553.262500",
          "081555.772500",
          "081558.282500",
          "081600.792500",
          "081603.302500",
          "081605.812500",
          "081608.322500",
          "081610.832500",
          "081613.342500",
          "081615.852500",
          "081618.362500"
        ],
        "ContentTime": [
          "080931.468000",
          "080933.953000",
          "080936.453000",
          "080938.953000",
          "080941.453000",
          "080943.953000",
          "080946.453000",
          "080948.953000",
          "080951.453000",
          "080953.953000",
          "080956.453000",
          "080958.953000",
          "081001.453000",
          "081003.953000",
          "081006.453000",
          "081008.953000",
          "081011.453000",
          "081013.953000",
          "081016.453000",
          "081018.953000",
          "081021.453000",
          "081023.953000",
          "081026.453000",
          "081028.953000",
          "081031.453000",
          "081033.953000",
          "081036.453000",
          "081038.953000",
          "081041.453000",
          "081043.953000",
          "081046.453000",
          "081048.953000",
          "081051.453000",
          "081053.953000",
          "081056.453000",
          "081058.953000",
          "081101.453000",
          "081103.953000",
          "081106.453000",
          "081108.953000",
          "081111.453000",
          "081113.953000",
          "081116.453000",
          "081118.953000",
          "081121.453000",
          "081123.953000",
          "081126.453000",
          "081128.953000",
          "081131.453000",
          "081133.953000",
          "081136.453000",
          "081138.953000",
          "081141.453000",
          "081143.953000",
          "081146.453000",
          "081148.953000",
          "081151.453000",
          "081153.953000",
          "081156.453000",
          "081158.953000",
          "081201.453000",
          "081203.953000",
          "081206.453000",
          "081208.953000",
          "081211.453000",
          "081213.953000",
          "081216.453000",
          "081218.953000",
          "081221.453000",
          "081223.953000",
          "081226.453000",
          "081228.953000",
          "081231.453000",
          "081233.953000",
          "081236.453000",
          "081238.953000",
          "081241.453000",
          "081243.953000",
          "081246.453000",
          "081248.953000",
          "081251.453000",
          "081253.953000",
          "081256.453000",
          "081258.953000",
          "081301.453000",
          "081303.953000",
          "081306.453000",
          "081308.953000",
          "081311.453000",
          "081313.953000",
          "081316.453000",
          "081318.953000",
          "081321.453000",
          "081323.953000",
          "081326.453000",
          "081328.953000",
          "081331.453000",
          "081333.953000",
          "081336.453000",
          "081338.953000",
          "081341.453000",
          "081343.953000",
          "081346.453000",
          "081348.953000",
          "081351.453000",
          "081353.953000",
          "081356.453000",
          "081358.953000",
          "081401.453000",
          "081403.953000",
          "081406.453000",
          "081408.953000",
          "081411.453000",
          "081413.953000",
          "081416.453000",
          "081418.953000",
          "081421.453000",
          "081423.953000",
          "081426.453000",
          "081428.953000",
          "081431.453000",
          "081433.953000",
          "081436.453000",
          "081438.953000",
          "081441.453000",
          "081443.953000",
          "081446.453000",
          "081448.953000",
          "081451.453000",
          "081453.953000",
          "081456.453000",
          "081458.953000",
          "081501.453000",
          "081503.953000",
          "081506.453000",
          "081508.953000",
          "081511.453000",
          "081513.953000",
          "081516.453000",
          "081518.953000",
          "081521.453000",
          "081523.953000",
          "081526.453000",
          "081528.953000",
          "081531.453000",
          "081533.953000",
          "081536.453000",
          "081538.953000",
          "081541.453000",
          "081543.953000",
          "081546.453000",
          "081548.953000",
          "081551.453000",
          "081553.953000",
          "081556.453000",
          "081558.953000",
          "081601.453000",
          "081603.953000",
          "081606.453000",
          "081608.953000",
          "081611.453000",
          "081613.953000",
          "081616.453000",
          "081618.546000"
        ],
        "InstanceCreationTime": [
          "080931.468000",
          "080933.953000",
          "080936.453000",
          "080938.953000",
          "080941.453000",
          "080943.953000",
          "080946.453000",
          "080948.953000",
          "080951.453000",
          "080953.953000",
          "080956.453000",
          "080958.953000",
          "081001.453000",
          "081003.953000",
          "081006.453000",
          "081008.953000",
          "081011.453000",
          "081013.953000",
          "081016.453000",
          "081018.953000",
          "081021.453000",
          "081023.953000",
          "081026.453000",
          "081028.953000",
          "081031.453000",
          "081033.953000",
          "081036.453000",
          "081038.953000",
          "081041.453000",
          "081043.953000",
          "081046.453000",
          "081048.953000",
          "081051.453000",
          "081053.953000",
          "081056.453000",
          "081058.953000",
          "081101.453000",
          "081103.953000",
          "081106.453000",
          "081108.953000",
          "081111.453000",
          "081113.953000",
          "081116.453000",
          "081118.953000",
          "081121.453000",
          "081123.953000",
          "081126.453000",
          "081128.953000",
          "081131.453000",
          "081133.953000",
          "081136.453000",
          "081138.953000",
          "081141.453000",
          "081143.953000",
          "081146.453000",
          "081148.953000",
          "081151.453000",
          "081153.953000",
          "081156.453000",
          "081158.953000",
          "081201.453000",
          "081203.953000",
          "081206.453000",
          "081208.953000",
          "081211.453000",
          "081213.953000",
          "081216.453000",
          "081218.953000",
          "081221.453000",
          "081223.953000",
          "081226.453000",
          "081228.953000",
          "081231.453000",
          "081233.953000",
          "081236.453000",
          "081238.953000",
          "081241.453000",
          "081243.953000",
          "081246.453000",
          "081248.953000",
          "081251.453000",
          "081253.953000",
          "081256.453000",
          "081258.953000",
          "081301.453000",
          "081303.953000",
          "081306.453000",
          "081308.953000",
          "081311.453000",
          "081313.953000",
          "081316.453000",
          "081318.953000",
          "081321.453000",
          "081323.953000",
          "081326.453000",
          "081328.953000",
          "081331.453000",
          "081333.953000",
          "081336.453000",
          "081338.953000",
          "081341.453000",
          "081343.953000",
          "081346.453000",
          "081348.953000",
          "081351.453000",
          "081353.953000",
          "081356.453000",
          "081358.953000",
          "081401.453000",
          "081403.953000",
          "081406.453000",
          "081408.953000",
          "081411.453000",
          "081413.953000",
          "081416.453000",
          "081418.953000",
          "081421.453000",
          "081423.953000",
          "081426.453000",
          "081428.953000",
          "081431.453000",
          "081433.953000",
          "081436.453000",
          "081438.953000",
          "081441.453000",
          "081443.953000",
          "081446.453000",
          "081448.953000",
          "081451.453000",
          "081453.953000",
          "081456.453000",
          "081458.953000",
          "081501.453000",
          "081503.953000",
          "081506.453000",
          "081508.953000",
          "081511.453000",
          "081513.953000",
          "081516.453000",
          "081518.953000",
          "081521.453000",
          "081523.953000",
          "081526.453000",
          "081528.953000",
          "081531.453000",
          "081533.953000",
          "081536.453000",
          "081538.953000",
          "081541.453000",
          "081543.953000",
          "081546.453000",
          "081548.953000",
          "081551.453000",
          "081553.953000",
          "081556.453000",
          "081558.953000",
          "081601.453000",
          "081603.953000",
          "081606.453000",
          "081608.953000",
          "081611.453000",
          "081613.953000",
          "081616.453000",
          "081618.546000"
        ],
        "InstanceNumber": [
          1,
          2,
          3,
          4,
          5,
          6,
          7,
          8,
          9,
          10,
          11,
          12,
          13,
          14,
          15,
          16,
          17,
          18,
          19,
          20,
          21,
          22,
          23,
          24,
          25,
          26,
          27,
          28,
          29,
          30,
          31,
          32,
          33,
          34,
          35,
          36,
          37,
          38,
          39,
          40,
          41,
          42,
          43,
          44,
          45,
          46,
          47,
          48,
          49,
          50,
          51,
          52,
          53,
          54,
          55,
          56,
          57,
          58,
          59,
          60,
          61,
          62,
          63,
          64,
          65,
          66,
          67,
          68,
          69,
          70,
          71,
          72,
          73,
          74,
          75,
          76,
          77,
          78,
          79,
          80,
          81,
          82,
          83,
          84,
          85,
          86,
          87,
          88,
          89,
          90,
          91,
          92,
          93,
          94,
          95,
          96,
          97,
          98,
          99,
          100,
          101,
          102,
          103,
          104,
          105,
          106,
          107,
          108,
          109,
          110,
          111,
          112,
          113,
          114,
          115,
          116,
          117,
          118,
          119,
          120,
          121,
          122,
          123,
          124,
          125,
          126,
          127,
          128,
          129,
          130,
          131,
          132,
          133,
          134,
          135,
          136,
          137,
          138,
          139,
          140,
          141,
          142,
          143,
          144,
          145,
          146,
          147,
          148,
          149,
          150,
          151,
          152,
          153,
          154,
          155,
          156,
          157,
          158,
          159,
          160,
          161,
          162,
          163,
          164
        ],
        "LargestImagePixelValue": [
          1694,
          1717,
          1732,
          1690,
          1708,
          1693,
          1672,
          1726,
          1721,
          1704,
          1686,
          1695,
          1685,
          1724,
          1729,
          1679,
          1678,
          1705,
          1719,
          1712,
          1688,
          1727,
          1714,
          1721,
          1683,
          1746,
          1735,
          1709,
          1731,
          1719,
          1693,
          1718,
          1714,
          1702,
          1709,
          1717,
          1710,
          1717,
          1710,
          1666,
          1708,
          1721,
          1736,
          1736,
          1707,
          1680,
          1691,
          1751,
          1777,
          1721,
          1724,
          1737,
          1761,
          1665,
          1688,
          1707,
          1776,
          1778,
          1742,
          1743,
          1720,
          1732,
          1771,
          1768,
          1713,
          1709,
          1749,
          1752,
          1699,
          1761,
          1796,
          1750,
          1706,
          1765,
          1750,
          1702,
          1698,
          1756,
          1755,
          1722,
          1663,
          1695,
          1669,
          1718,
          1749,
          1765,
          1708,
          1738,
          1767,
          1718,
          1691,
          1731,
          1793,
          1724,
          1759,
          1775,
          1685,
          1716,
          1762,
          1728,
          1752,
          1702,
          1750,
          1704,
          1769,
          1714,
          1781,
          1769,
          1692,
          1768,
          1777,
          1761,
          1734,
          1769,
          1787,
          1678,
          1724,
          1689,
          1771,
          1759,
          1753,
          1720,
          1777,
          1739,
          1768,
          1781,
          1685,
          1825,
          1756,
          1774,
          1696,
          1756,
          1796,
          1738,
          1721,
          1722,
          1740,
          1755,
          1752,
          1721,
          1686,
          1755,
          1709,
          1757,
          1749,
          1716,
          1737,
          1750,
          1711,
          1701,
          1748,
          1783,
          1789,
          1794,
          1753,
          1715,
          1719,
          1751,
          1768,
          1726,
          1704,
          1774,
          1767,
          1806
        ],
        "WindowCenter": [
          696.0,
          696.0,
          697.0,
          698.0,
          694.0,
          696.0,
          696.0,
          698.0,
          699.0,
          697.0,
          696.0,
          699.0,
          697.0,
          699.0,
          699.0,
          697.0,
          695.0,
          699.0,
          699.0,
          694.0,
          697.0,
          698.0,
          698.0,
          698.0,
          697.0,
          699.0,
          696.0,
          696.0,
          697.0,
          699.0,
          696.0,
          697.0,
          695.0,
          698.0,
          697.0,
          699.0,
          697.0,
          699.0,
          695.0,
          699.0,
          698.0,
          696.0,
          698.0,
          699.0,
          696.0,
          697.0,
          698.0,
          696.0,
          699.0,
          700.0,
          698.0,
          698.0,
          694.0,
          698.0,
          696.0,
          695.0,
          699.0,
          694.0,
          698.0,
          693.0,
          699.0,
          698.0,
          699.0,
          696.0,
          699.0,
          697.0,
          698.0,
          699.0,
          696.0,
          696.0,
          696.0,
          699.0,
          699.0,
          696.0,
          699.0,
          701.0,
          699.0,
          700.0,
          699.0,
          698.0,
          698.0,
          697.0,
          696.0,
          699.0,
          700.0,
          700.0,
          699.0,
          696.0,
          694.0,
          698.0,
          696.0,
          698.0,
          701.0,
          699.0,
          699.0,
          699.0,
          700.0,
          696.0,
          698.0,
          701.0,
          698.0,
          699.0,
          697.0,
          699.0,
          699.0,
          699.0,
          699.0,
          699.0,
          699.0,
          700.0,
          700.0,
          702.0,
          696.0,
          700.0,
          698.0,
          697.0,
          699.0,
          695.0,
          697.0,
          699.0,
          698.0,
          699.0,
          697.0,
          696.0,
          697.0,
          696.0,
          699.0,
          700.0,
          701.0,
          701.0,
          699.0,
          698.0,
          699.0,
          695.0,
          700.0,
          697.0,
          698.0,
          697.0,
          700.0,
          700.0,
          699.0,
          698.0,
          696.0,
          697.0,
          698.0,
          700.0,
          701.0,
          698.0,
          696.0,
