{
  "aor": 0.008672560975609755,
  "aqi": 0.014735350060975613,
  "bids_meta": {
    "AcquisitionMatrixPE": 64,
    "AcquisitionNumber": 1,
    "AcquisitionTime": "08:22:26.407500",
    "BandwidthPerPixelPhaseEncode": 26.483,
    "BaseResolution": 64,
    "BodyPartExamined": "HEAD",
    "CogAtlasID": "TODO",
    "ConversionSoftware": "dcm2niix",
    "ConversionSoftwareVersion": "v1.0.20171017 GCC6.3.0",
    "DerivedVendorReportedEchoSpacing": 0.000590001,
    "DeviceSerialNumber": "35177",
    "DwellTime": 4.1e-06,
    "EchoTime": 0.027,
    "EffectiveEchoSpacing": 0.000590001,
    "FlipAngle": 90,
    "ImageOrientationPatientDICOM": [
      0.997236,
      -0.0648561,
      0.0362523,
      0.0602086,
      0.991282,
      0.117194
    ],
    "ImageType": [
      "ORIGINAL",
      "PRIMARY",
      "M",
      "ND",
      "NORM",
      "MOSAIC"
    ],
    "InPlanePhaseEncodingDirectionDICOM": "COL",
    "InstitutionAddress": "Scott_Ave._4525_St._Louis_MO_US_63110",
    "InstitutionName": "Washington_University",
    "InstitutionalDepartmentName": "Department",
    "MRAcquisitionType": "2D",
    "MagneticFieldStrength": 3,
    "Manufacturer": "Siemens",
    "ManufacturersModelName": "TrioTim",
    "Modality": "MR",
    "PartialFourier": 1,
    "PatientPosition": "HFS",
    "PercentPhaseFOV": 100,
    "PhaseEncodingDirection": "j-",
    "PhaseEncodingSteps": 64,
    "PhaseResolution": 1,
    "PixelBandwidth": 1905,
    "ProcedureStepDescription": "head_GREENE",
    "ProtocolName": "ep2d_bold_movie_2A",
    "PulseSequenceDetails": "%SiemensSeq%_ep2d_bold",
    "ReceiveCoilName": "HeadMatrix",
    "ReconMatrixPE": 64,
    "RepetitionTime": 2.5,
    "SAR": 0.162777,
    "ScanOptions": "FS",
    "ScanningSequence": "EP",
    "SequenceName": "_epfid2d1_64",
    "SequenceVariant": "SK",
    "SeriesDescription": "ep2d_bold_movie_2A",
    "SeriesNumber": 11,
    "ShimSetting": [
      -208,
      -18758,
      7392,
      -133,
      -18,
      1559,
      790,
      -65
    ],
    "SliceThickness": 4,
    "SliceTiming": [
      1.255,
      0,
      1.3325,
      0.0775,
      1.41,
      0.155,
      1.49,
      0.235,
      1.5675,
      0.3125,
      1.645,
      0.39,
      1.725,
      0.47,
      1.8025,
      0.5475,
      1.8825,
      0.6275,
      1.96,
      0.705,
      2.0375,
      0.7825,
      2.1175,
      0.8625,
      2.195,
      0.94,
      2.2725,
      1.0175,
      2.3525,
      1.0975,
      2.43,
      1.175
    ],
    "SoftwareVersions": "syngo_MR_B17",
    "SpacingBetweenSlices": 4,
    "StationName": "MRC35177",
    "TaskName": "restmovienofeedback",
    "TotalReadoutTime": 0.0371701,
    "TxRefAmp": 345.106,
    "dataset": "ds000256",
    "dcmmeta_affine": [
      [
        -3.988943576812744,
        0.2408342808485031,
        0.17414778470993042,
        119.68867492675781
      ],
      [
        0.2594242990016937,
        3.9651291370391846,
        0.4587474465370178,
        -146.45001220703125
      ],
      [
        0.14500916004180908,
        -0.46877413988113403,
        3.969787120819092,
        -17.988414764404297
      ],
      [
        0.0,
        0.0,
        0.0,
        1.0
      ]
    ],
    "dcmmeta_reorient_transform": [
      [
        0.0,
        -1.0,
        0.0,
        63.0
      ],
      [
        1.0,
        0.0,
        0.0,
        0.0
      ],
      [
        0.0,
        0.0,
        1.0,
        0.0
      ],
      [
        0.0,
        0.0,
        0.0,
        1.0
      ]
    ],
    "dcmmeta_shape": [
      64,
      64,
      32,
      164
    ],
    "dcmmeta_slice_dim": 2,
    "dcmmeta_version": 0.6,
    "global": {
      "const": {
        "AccessionNumber": ".",
        "AcquisitionMatrix": [
          64,
          0,
          0,
          64
        ],
        "AngioFlag": "N",
        "BitsAllocated": 16,
        "BitsStored": 12,
        "BodyPartExamined": "HEAD",
        "Columns": 384,
        "ContrastBolusIngredientConcentration": 0.0,
        "ContrastBolusTotalDose": 0.0,
        "ContrastBolusVolume": 0.0,
        "DeidentificationMethodCodeSequence": [
          {
            "CodeMeaning": "XNAT Edit Script",
            "CodeValue": "625500",
            "CodingSchemeDesignator": "XNAT",
            "CodingSchemeVersion": "0.1"
          }
        ],
        "EchoNumbers": 1,
        "EchoTime": 27.0,
        "EchoTrainLength": 1,
        "FlipAngle": 90.0,
        "HighBit": 11,
        "ImageOrientationPatient": [
          0.99723591031084,
          -0.0648560772519,
          0.0362522886173,
          0.06020856947662,
          0.99128230222318,
          0.11719353847673
        ],
        "ImagePositionPatient": [
          -811.62569973282,
          -696.26590485719,
          -145.72651643929
        ],
        "ImageType": [
          "ORIGINAL",
          "PRIMARY",
          "M",
          "ND",
          "NORM",
          "MOSAIC"
        ],
        "ImagedNucleus": "1H",
        "ImagingFrequency": 123.256185,
        "InPlanePhaseEncodingDirection": "COL",
        "MRAcquisitionType": "2D",
        "MagneticFieldStrength": 3.0,
        "Manufacturer": "SIEMENS",
        "ManufacturerModelName": "TrioTim",
        "Modality": "MR",
        "NumberOfAverages": 1.0,
        "NumberOfPhaseEncodingSteps": 64,
        "PercentPhaseFieldOfView": 100.0,
        "PercentSampling": 100.0,
        "PerformedProcedureStepStartTime": "074016.093000",
        "PhotometricInterpretation": "MONOCHROME2",
        "PixelBandwidth": 1905.0,
        "PixelRepresentation": 0,
        "PixelSpacing": [
          4.0,
          4.0
        ],
        "PositionReferenceIndicator": "",
        "ProtocolName": "ep2d_bold_movie_2A",
        "RepetitionTime": 2500.0,
        "Rows": 384,
        "SAR": 0.16277656032394,
        "SamplesPerPixel": 1,
        "ScanOptions": "FS",
        "ScanningSequence": "EP",
        "SequenceName": "*epfid2d1_64",
        "SequenceVariant": "SK",
        "SeriesDescription": "ep2d_bold_movie_2A",
        "SeriesNumber": 11,
        "SeriesTime": "082228.390000",
        "SliceLocation": -29.437570581578,
        "SliceThickness": 4.0,
        "SmallestImagePixelValue": 0,
        "SoftwareVersions": "syngo MR B17",
        "SpacingBetweenSlices": 3.9999983507044,
        "SpecificCharacterSet": "ISO_IR 100",
        "StudyID": "1",
        "StudyTime": "074016.046000",
        "TransmitCoilName": "Body",
        "VariableFlipAngleFlag": "N",
        "WindowCenterWidthExplanation": "Algo1",
        "dBdt": 0.0
      },
      "slices": {}
    },
    "modality": "bold",
    "subject_id": "CTS237",
    "task_id": "restmovienofeedback",
    "time": {
      "samples": {
        "AcquisitionNumber": [
          1,
          2,
          3,
          4,
          5,
          6,
          7,
          8,
          9,
          10,
          11,
          12,
          13,
          14,
          15,
          16,
          17,
          18,
          19,
          20,
          21,
          22,
          23,
          24,
          25,
          26,
          27,
          28,
          29,
          30,
          31,
          32,
          33,
          34,
          35,
          36,
          37,
          38,
          39,
          40,
          41,
          42,
          43,
          44,
          45,
          46,
          47,
          48,
          49,
          50,
          51,
          52,
          53,
          54,
          55,
          56,
          57,
          58,
          59,
          60,
          61,
          62,
          63,
          64,
          65,
          66,
          67,
          68,
          69,
          70,
          71,
          72,
          73,
          74,
          75,
          76,
          77,
          78,
          79,
          80,
          81,
          82,
          83,
          84,
          85,
          86,
          87,
          88,
          89,
          90,
          91,
          92,
          93,
          94,
          95,
          96,
          97,
          98,
          99,
          100,
          101,
          102,
          103,
          104,
          105,
          106,
          107,
          108,
          109,
          110,
          111,
          112,
          113,
          114,
          115,
          116,
          117,
          118,
          119,
          120,
          121,
          122,
          123,
          124,
          125,
          126,
          127,
          128,
          129,
          130,
          131,
          132,
          133,
          134,
          135,
          136,
          137,
          138,
          139,
          140,
          141,
          142,
          143,
          144,
          145,
          146,
          147,
          148,
          149,
          150,
          151,
          152,
          153,
          154,
          155,
          156,
          157,
          158,
          159,
          160,
          161,
          162,
          163,
          164
        ],
        "AcquisitionTime": [
          "082226.407500",
          "082228.917500",
          "082231.427500",
          "082233.937500",
          "082236.447500",
          "082238.957500",
          "082241.467500",
          "082243.977500",
          "082246.487500",
          "082248.997500",
          "082251.507500",
          "082254.017500",
          "082256.527500",
          "082259.037500",
          "082301.547500",
          "082304.057500",
          "082306.567500",
          "082309.077500",
          "082311.587500",
          "082314.097500",
          "082316.607500",
          "082319.117500",
          "082321.627500",
          "082324.137500",
          "082326.647500",
          "082329.157500",
          "082331.667500",
          "082334.177500",
          "082336.687500",
          "082339.197500",
          "082341.707500",
          "082344.217500",
          "082346.727500",
          "082349.237500",
          "082351.747500",
          "082354.257500",
          "082356.767500",
          "082359.277500",
          "082401.787500",
          "082404.297500",
          "082406.807500",
          "082409.317500",
          "082411.827500",
          "082414.337500",
          "082416.847500",
          "082419.357500",
          "082421.867500",
          "082424.377500",
          "082426.887500",
          "082429.397500",
          "082431.907500",
          "082434.417500",
          "082436.927500",
          "082439.437500",
          "082441.947500",
          "082444.457500",
          "082446.967500",
          "082449.477500",
          "082451.987500",
          "082454.497500",
          "082457.010000",
          "082459.520000",
          "082502.030000",
          "082504.540000",
          "082507.050000",
          "082509.560000",
          "082512.070000",
          "082514.580000",
          "082517.090000",
          "082519.600000",
          "082522.110000",
          "082524.620000",
          "082527.130000",
          "082529.640000",
          "082532.150000",
          "082534.660000",
          "082537.170000",
          "082539.680000",
          "082542.190000",
          "082544.700000",
          "082547.210000",
          "082549.720000",
          "082552.230000",
          "082554.740000",
          "082557.250000",
          "082559.760000",
          "082602.270000",
          "082604.780000",
          "082607.290000",
          "082609.800000",
          "082612.310000",
          "082614.820000",
          "082617.330000",
          "082619.840000",
          "082622.350000",
          "082624.860000",
          "082627.370000",
          "082629.880000",
          "082632.390000",
          "082634.900000",
          "082637.410000",
          "082639.920000",
          "082642.430000",
          "082644.940000",
          "082647.450000",
          "082649.960000",
          "082652.470000",
          "082654.980000",
          "082657.490000",
          "082700.000000",
          "082702.510000",
          "082705.020000",
          "082707.530000",
          "082710.040000",
          "082712.550000",
          "082715.060000",
          "082717.570000",
          "082720.080000",
          "082722.590000",
          "082725.100000",
          "082727.610000",
          "082730.120000",
          "082732.632500",
          "082735.142500",
          "082737.652500",
          "082740.162500",
          "082742.672500",
          "082745.182500",
          "082747.692500",
          "082750.202500",
          "082752.712500",
          "082755.222500",
          "082757.732500",
          "082800.242500",
          "082802.752500",
          "082805.262500",
          "082807.772500",
          "082810.282500",
          "082812.792500",
          "082815.302500",
          "082817.812500",
          "082820.322500",
          "082822.832500",
          "082825.342500",
          "082827.852500",
          "082830.362500",
          "082832.872500",
          "082835.382500",
          "082837.892500",
          "082840.402500",
          "082842.912500",
          "082845.422500",
          "082847.932500",
          "082850.442500",
          "082852.952500",
          "082855.462500",
          "082857.972500",
          "082900.482500",
          "082902.992500",
          "082905.502500",
          "082908.012500",
          "082910.522500",
          "082913.032500",
          "082915.542500"
        ],
        "ContentTime": [
          "082228.406000",
          "082230.890000",
          "082233.390000",
          "082235.890000",
          "082238.390000",
          "082240.890000",
          "082243.390000",
          "082245.890000",
          "082248.390000",
          "082250.890000",
          "082253.390000",
          "082255.890000",
          "082258.390000",
          "082300.890000",
          "082303.390000",
          "082305.890000",
          "082308.390000",
          "082310.890000",
          "082313.390000",
          "082315.890000",
          "082318.390000",
          "082320.890000",
          "082323.390000",
          "082325.890000",
          "082328.390000",
          "082330.890000",
          "082333.390000",
          "082335.890000",
          "082338.390000",
          "082340.890000",
          "082343.390000",
          "082345.890000",
          "082348.390000",
          "082350.890000",
          "082353.390000",
          "082355.890000",
          "082358.390000",
          "082400.890000",
          "082403.390000",
          "082405.890000",
          "082408.390000",
          "082410.890000",
          "082413.390000",
          "082415.890000",
          "082418.390000",
          "082420.890000",
          "082423.390000",
          "082425.890000",
          "082428.390000",
          "082430.890000",
          "082433.390000",
          "082435.890000",
          "082438.390000",
          "082440.890000",
          "082443.390000",
          "082445.890000",
          "082448.390000",
          "082450.890000",
          "082453.390000",
          "082455.890000",
          "082458.390000",
          "082500.890000",
          "082503.390000",
          "082505.890000",
          "082508.390000",
          "082510.890000",
          "082513.390000",
          "082515.890000",
          "082518.390000",
          "082520.890000",
          "082523.390000",
          "082525.890000",
          "082528.390000",
          "082530.890000",
          "082533.390000",
          "082535.890000",
          "082538.390000",
          "082540.890000",
          "082543.390000",
          "082545.890000",
          "082548.390000",
          "082550.890000",
          "082553.390000",
          "082555.890000",
          "082558.390000",
          "082600.890000",
          "082603.390000",
          "082605.890000",
          "082608.390000",
          "082610.890000",
          "082613.390000",
          "082615.890000",
          "082618.390000",
          "082620.890000",
          "082623.390000",
          "082625.890000",
          "082628.390000",
          "082630.890000",
          "082633.390000",
          "082635.890000",
          "082638.390000",
          "082640.890000",
          "082643.390000",
          "082645.890000",
          "082648.390000",
          "082650.890000",
          "082653.390000",
          "082655.890000",
          "082658.390000",
          "082700.890000",
          "082703.390000",
          "082705.890000",
          "082708.390000",
          "082710.890000",
          "082713.390000",
          "082715.890000",
          "082718.390000",
          "082720.890000",
          "082723.390000",
          "082725.890000",
          "082728.390000",
          "082730.890000",
          "082733.390000",
          "082735.890000",
          "082738.390000",
          "082740.890000",
          "082743.390000",
          "082745.890000",
          "082748.390000",
          "082750.890000",
          "082753.390000",
          "082755.890000",
          "082758.390000",
          "082800.890000",
          "082803.390000",
          "082805.890000",
          "082808.390000",
          "082810.890000",
          "082813.390000",
          "082815.890000",
          "082818.390000",
          "082820.890000",
          "082823.390000",
          "082825.890000",
          "082828.390000",
          "082830.890000",
          "082833.390000",
          "082835.890000",
          "082838.390000",
          "082840.890000",
          "082843.390000",
          "082845.890000",
          "082848.390000",
          "082850.890000",
          "082853.390000",
          "082855.890000",
          "082858.390000",
          "082900.890000",
          "082903.390000",
          "082905.890000",
          "082908.390000",
          "082910.890000",
          "082913.390000",
          "082915.468000"
        ],
        "InstanceCreationTime": [
          "082228.406000",
          "082230.890000",
          "082233.390000",
          "082235.890000",
          "082238.390000",
          "082240.890000",
          "082243.390000",
          "082245.890000",
          "082248.390000",
          "082250.890000",
          "082253.390000",
          "082255.890000",
          "082258.390000",
          "082300.890000",
          "082303.390000",
          "082305.890000",
          "082308.390000",
          "082310.890000",
          "082313.390000",
          "082315.890000",
          "082318.390000",
          "082320.890000",
          "082323.390000",
          "082325.890000",
          "082328.390000",
          "082330.890000",
          "082333.390000",
          "082335.890000",
          "082338.390000",
          "082340.890000",
          "082343.390000",
          "082345.890000",
          "082348.390000",
          "082350.890000",
          "082353.390000",
          "082355.890000",
          "082358.390000",
          "082400.890000",
          "082403.390000",
          "082405.890000",
          "082408.390000",
          "082410.890000",
          "082413.390000",
          "082415.890000",
          "082418.390000",
          "082420.890000",
          "082423.390000",
          "082425.890000",
          "082428.390000",
          "082430.890000",
          "082433.390000",
          "082435.890000",
          "082438.390000",
          "082440.890000",
          "082443.390000",
          "082445.890000",
          "082448.390000",
          "082450.890000",
          "082453.390000",
          "082455.890000",
          "082458.390000",
          "082500.890000",
          "082503.390000",
          "082505.890000",
          "082508.390000",
          "082510.890000",
          "082513.390000",
          "082515.890000",
          "082518.390000",
          "082520.890000",
          "082523.390000",
          "082525.890000",
          "082528.390000",
          "082530.890000",
          "082533.390000",
          "082535.890000",
          "082538.390000",
          "082540.890000",
          "082543.390000",
          "082545.890000",
          "082548.390000",
          "082550.890000",
          "082553.390000",
          "082555.890000",
          "082558.390000",
          "082600.890000",
          "082603.390000",
          "082605.890000",
          "082608.390000",
          "082610.890000",
          "082613.390000",
          "082615.890000",
          "082618.390000",
          "082620.890000",
          "082623.390000",
          "082625.890000",
          "082628.390000",
          "082630.890000",
          "082633.390000",
          "082635.890000",
          "082638.390000",
          "082640.890000",
          "082643.390000",
          "082645.890000",
          "082648.390000",
          "082650.890000",
          "082653.390000",
          "082655.890000",
          "082658.390000",
          "082700.890000",
          "082703.390000",
          "082705.890000",
          "082708.390000",
          "082710.890000",
          "082713.390000",
          "082715.890000",
          "082718.390000",
          "082720.890000",
          "082723.390000",
          "082725.890000",
          "082728.390000",
          "082730.890000",
          "082733.390000",
          "082735.890000",
          "082738.390000",
          "082740.890000",
          "082743.390000",
          "082745.890000",
          "082748.390000",
          "082750.890000",
          "082753.390000",
          "082755.890000",
          "082758.390000",
          "082800.890000",
          "082803.390000",
          "082805.890000",
          "082808.390000",
          "082810.890000",
          "082813.390000",
          "082815.890000",
          "082818.390000",
          "082820.890000",
          "082823.390000",
          "082825.890000",
          "082828.390000",
          "082830.890000",
          "082833.390000",
          "082835.890000",
          "082838.390000",
          "082840.890000",
          "082843.390000",
          "082845.890000",
          "082848.390000",
          "082850.890000",
          "082853.390000",
          "082855.890000",
          "082858.390000",
          "082900.890000",
          "082903.390000",
          "082905.890000",
          "082908.390000",
          "082910.890000",
          "082913.390000",
          "082915.468000"
        ],
        "InstanceNumber": [
          1,
          2,
          3,
          4,
          5,
          6,
          7,
          8,
          9,
          10,
          11,
          12,
          13,
          14,
          15,
          16,
          17,
          18,
          19,
          20,
          21,
          22,
          23,
          24,
          25,
          26,
          27,
          28,
          29,
          30,
          31,
          32,
          33,
          34,
          35,
          36,
          37,
          38,
          39,
          40,
          41,
          42,
          43,
          44,
          45,
          46,
          47,
          48,
          49,
          50,
          51,
          52,
          53,
          54,
          55,
          56,
          57,
          58,
          59,
          60,
          61,
          62,
          63,
          64,
          65,
          66,
          67,
          68,
          69,
          70,
          71,
          72,
          73,
          74,
          75,
          76,
          77,
          78,
          79,
          80,
          81,
          82,
          83,
          84,
          85,
          86,
          87,
          88,
          89,
          90,
          91,
          92,
          93,
          94,
          95,
          96,
          97,
          98,
          99,
          100,
          101,
          102,
          103,
          104,
          105,
          106,
          107,
          108,
          109,
          110,
          111,
          112,
          113,
          114,
          115,
          116,
          117,
          118,
          119,
          120,
          121,
          122,
          123,
          124,
          125,
          126,
          127,
          128,
          129,
          130,
          131,
          132,
          133,
          134,
          135,
          136,
          137,
          138,
          139,
          140,
          141,
          142,
          143,
          144,
          145,
          146,
          147,
          148,
          149,
          150,
          151,
          152,
          153,
          154,
          155,
          156,
          157,
          158,
          159,
          160,
          161,
          162,
          163,
          164
        ],
        "LargestImagePixelValue": [
          1801,
          1761,
          1712,
          1735,
          1737,
          1764,
          1779,
          1774,
          1762,
          1763,
          1788,
          1743,
          1773,
          1709,
          1792,
          1807,
          1773,
          1760,
          1758,
          1790,
          1740,
          1773,
          1773,
          1795,
          1738,
          1726,
          1823,
          1765,
          1761,
          1748,
          1800,
          1737,
          1643,
          1791,
          1789,
          1731,
          1758,
          1719,
          1745,
          1777,
          1739,
          1736,
          1717,
          1728,
          1786,
          1790,
          1729,
          1744,
          1714,
          1770,
          1698,
          1720,
          1713,
          1747,
          1709,
          1741,
          1774,
          1717,
          1699,
          1738,
          1735,
          1713,
          1757,
          1711,
          1688,
          1767,
          1696,
          1785,
          1717,
          1766,
          1738,
          1725,
          1702,
          1835,
          1734,
          1751,
          1802,
          1793,
          1816,
          1874,
          1783,
          1745,
          1711,
          1822,
          1885,
          1793,
          1820,
          1762,
          1758,
          1660,
          1726,
          1707,
          1924,
          1833,
          1793,
          1815,
          1732,
          1726,
          1688,
          1814,
          1829,
          1759,
          1758,
          1784,
          1745,
          1818,
          1790,
          1784,
          1709,
          1769,
          1760,
          1863,
          1831,
          1801,
          1843,
          1811,
          1821,
          1787,
          1798,
          1831,
          1812,
          1774,
          1763,
          1880,
          1822,
          1875,
          1811,
          1798,
          1806,
          1787,
          1829,
          1786,
          1808,
          1758,
          1696,
          1673,
          1739,
          1747,
          1710,
          1662,
          1720,
          1690,
          1679,
          1696,
          1722,
          1736,
          1685,
          1768,
          1799,
          1787,
          1743,
          1780,
          1730,
          1725,
          1698,
          1796,
          1692,
          1711,
          1706,
          1796,
          1755,
          1753,
          1767,
          1779
        ],
        "WindowCenter": [
          696.0,
          696.0,
          699.0,
          699.0,
          698.0,
          696.0,
          695.0,
          698.0,
          700.0,
          696.0,
          698.0,
          695.0,
          698.0,
          695.0,
          699.0,
          695.0,
          699.0,
          694.0,
          694.0,
          700.0,
          696.0,
          698.0,
          700.0,
          696.0,
          697.0,
          697.0,
          698.0,
          699.0,
          697.0,
          696.0,
          697.0,
          698.0,
          695.0,
          702.0,
          699.0,
          697.0,
          697.0,
          700.0,
          699.0,
          698.0,
          699.0,
          699.0,
          698.0,
          699.0,
          700.0,
          698.0,
          698.0,
          698.0,
          692.0,
          700.0,
          699.0,
          692.0,
          697.0,
          698.0,
          700.0,
          699.0,
          693.0,
          697.0,
          696.0,
          700.0,
          697.0,
          696.0,
          698.0,
          698.0,
          700.0,
          698.0,
          695.0,
          696.0,
          695.0,
          699.0,
          697.0,
          693.0,
          698.0,
          695.0,
          700.0,
          696.0,
          696.0,
          698.0,
          697.0,
          696.0,
          698.0,
          697.0,
          695.0,
          694.0,
          698.0,
          700.0,
          692.0,
          701.0,
          697.0,
          695.0,
          693.0,
          693.0,
          693.0,
          693.0,
          692.0,
          694.0,
          699.0,
          698.0,
          697.0,
          693.0,
          693.0,
          697.0,
          694.0,
          692.0,
          693.0,
          692.0,
          692.0,
          694.0,
          695.0,
          693.0,
          693.0,
          694.0,
          692.0,
          693.0,
          693.0,
          694.0,
          698.0,
          693.0,
          694.0,
          700.0,
          694.0,
          692.0,
          700.0,
          695.0,
          694.0,
          693.0,
          694.0,
          694.0,
          693.0,
          693.0,
          694.0,
          695.0,
          696.0,
          695.0,
          697.0,
          699.0,
          696.0,
          700.0,
          697.0,
          694.0,
          698.0,
          698.0,
