{
  "aor": 0.011455487804878048,
  "aqi": 0.01826227,
  "bids_meta": {
    "AcquisitionMatrixPE": 64,
    "AcquisitionNumber": 1,
    "AcquisitionTime": "10:35:59.307500",
    "BandwidthPerPixelPhaseEncode": 26.483,
    "BaseResolution": 64,
    "BodyPartExamined": "HEAD",
    "CogAtlasID": "TODO",
    "ConversionSoftware": "dcm2niix",
    "ConversionSoftwareVersion": "v1.0.20171017 GCC6.3.0",
    "DerivedVendorReportedEchoSpacing": 0.000590001,
    "DeviceSerialNumber": "35177",
    "DwellTime": 4.1e-06,
    "EchoTime": 0.027,
    "EffectiveEchoSpacing": 0.000590001,
    "FlipAngle": 90,
    "ImageOrientationPatientDICOM": [
      0.997441,
      0.0462737,
      0.0545021,
      -0.0487864,
      0.997763,
      0.0457121
    ],
    "ImageType": [
      "ORIGINAL",
      "PRIMARY",
      "M",
      "ND",
      "NORM",
      "MOSAIC"
    ],
    "InPlanePhaseEncodingDirectionDICOM": "COL",
    "InstitutionAddress": "Scott_Ave._4525_St._Louis_MO_US_63110",
    "InstitutionName": "Washington_University",
    "InstitutionalDepartmentName": "Department",
    "MRAcquisitionType": "2D",
    "MagneticFieldStrength": 3,
    "Manufacturer": "Siemens",
    "ManufacturersModelName": "TrioTim",
    "Modality": "MR",
    "PartialFourier": 1,
    "PatientPosition": "HFS",
    "PercentPhaseFOV": 100,
    "PhaseEncodingDirection": "j-",
    "PhaseEncodingSteps": 64,
    "PhaseResolution": 1,
    "PixelBandwidth": 1905,
    "ProcedureStepDescription": "head_GREENE",
    "ProtocolName": "ep2d_bold_rest2",
    "PulseSequenceDetails": "%SiemensSeq%_ep2d_bold",
    "ReceiveCoilName": "HeadMatrix",
    "ReconMatrixPE": 64,
    "RepetitionTime": 2.5,
    "SAR": 0.12563,
    "ScanOptions": "FS",
    "ScanningSequence": "EP",
    "SequenceName": "_epfid2d1_64",
    "SequenceVariant": "SK",
    "SeriesDescription": "ep2d_bold_rest2",
    "SeriesNumber": 6,
    "ShimSetting": [
      -254,
      -19600,
      7985,
      341,
      -116,
      -521,
      247,
      -47
    ],
    "SliceThickness": 4,
    "SliceTiming": [
      1.255,
      0,
      1.3325,
      0.0775,
      1.41,
      0.1575,
      1.49,
      0.235,
      1.5675,
      0.3125,
      1.6475,
      0.3925,
      1.725,
      0.47,
      1.8025,
      0.5475,
      1.8825,
      0.6275,
      1.96,
      0.705,
      2.0375,
      0.7825,
      2.1175,
      0.8625,
      2.195,
      0.94,
      2.2725,
      1.02,
      2.3525,
      1.0975,
      2.43,
      1.175
    ],
    "SoftwareVersions": "syngo_MR_B17",
    "SpacingBetweenSlices": 4,
    "StationName": "MRC35177",
    "TaskName": "restfixationnofeedback",
    "TotalReadoutTime": 0.0371701,
    "TxRefAmp": 333.738,
    "dataset": "ds000256",
    "dcmmeta_affine": [
      [
        -3.9897634983062744,
        -0.19514571130275726,
        0.20905958116054535,
        138.79893493652344
      ],
      [
        -0.18509480357170105,
        3.9910504817962646,
        0.19301645457744598,
        -127.74984741210938
      ],
      [
        0.21800833940505981,
        -0.1828484684228897,
        3.989868640899658,
        -40.975791931152344
      ],
      [
        0.0,
        0.0,
        0.0,
        1.0
      ]
    ],
    "dcmmeta_reorient_transform": [
      [
        0.0,
        -1.0,
        0.0,
        63.0
      ],
      [
        1.0,
        0.0,
        0.0,
        0.0
      ],
      [
        0.0,
        0.0,
        1.0,
        0.0
      ],
      [
        0.0,
        0.0,
        0.0,
        1.0
      ]
    ],
    "dcmmeta_shape": [
      64,
      64,
      32,
      164
    ],
    "dcmmeta_slice_dim": 2,
    "dcmmeta_version": 0.6,
    "global": {
      "const": {
        "AccessionNumber": ".",
        "AcquisitionMatrix": [
          64,
          0,
          0,
          64
        ],
        "AngioFlag": "N",
        "BitsAllocated": 16,
        "BitsStored": 12,
        "BodyPartExamined": "HEAD",
        "Columns": 384,
        "DeidentificationMethodCodeSequence": [
          {
            "CodeMeaning": "XNAT Edit Script",
            "CodeValue": "625500",
            "CodingSchemeDesignator": "XNAT",
            "CodingSchemeVersion": "0.1"
          }
        ],
        "EchoNumbers": 1,
        "EchoTime": 27.0,
        "EchoTrainLength": 1,
        "FlipAngle": 90.0,
        "HighBit": 11,
        "ImageOrientationPatient": [
          0.99744085909659,
          0.04627370129051,
          0.05450208412099,
          -0.0487864273149,
          0.99776264059869,
          0.04571211584881
        ],
        "ImagePositionPatient": [
          -733.64359659692,
          -791.86959509544,
          -116.63233318301
        ],
        "ImageType": [
          "ORIGINAL",
          "PRIMARY",
          "M",
          "ND",
          "NORM",
          "MOSAIC"
        ],
        "ImagedNucleus": "1H",
        "ImagingFrequency": 123.256216,
        "InPlanePhaseEncodingDirection": "COL",
        "MRAcquisitionType": "2D",
        "MagneticFieldStrength": 3.0,
        "Manufacturer": "SIEMENS",
        "ManufacturerModelName": "TrioTim",
        "Modality": "MR",
        "NumberOfAverages": 1.0,
        "NumberOfPhaseEncodingSteps": 64,
        "PercentPhaseFieldOfView": 100.0,
        "PercentSampling": 100.0,
        "PerformedProcedureStepStartTime": "102513.546000",
        "PhotometricInterpretation": "MONOCHROME2",
        "PixelBandwidth": 1905.0,
        "PixelRepresentation": 0,
        "PixelSpacing": [
          4.0,
          4.0
        ],
        "PositionReferenceIndicator": "",
        "ProtocolName": "ep2d_bold_rest2",
        "RepetitionTime": 2500.0,
        "Rows": 384,
        "SAR": 0.12563020719281,
        "SamplesPerPixel": 1,
        "ScanOptions": "FS",
        "ScanningSequence": "EP",
        "SequenceName": "*epfid2d1_64",
        "SequenceVariant": "SK",
        "SeriesDescription": "ep2d_bold_rest2",
        "SeriesNumber": 6,
        "SeriesTime": "103601.296000",
        "SliceLocation": -39.782134296903,
        "SliceThickness": 4.0,
        "SmallestImagePixelValue": 0,
        "SoftwareVersions": "syngo MR B17",
        "SpacingBetweenSlices": 4.0000015213,
        "SpecificCharacterSet": "ISO_IR 100",
        "StudyID": "1",
        "StudyTime": "102513.500000",
        "TransmitCoilName": "Body",
        "VariableFlipAngleFlag": "N",
        "WindowCenterWidthExplanation": "Algo1",
        "dBdt": 0.0
      },
      "slices": {}
    },
    "modality": "bold",
    "subject_id": "CTS239",
    "task_id": "restfixationnofeedback",
    "time": {
      "samples": {
        "AcquisitionNumber": [
          1,
          2,
          3,
          4,
          5,
          6,
          7,
          8,
          9,
          10,
          11,
          12,
          13,
          14,
          15,
          16,
          17,
          18,
          19,
          20,
          21,
          22,
          23,
          24,
          25,
          26,
          27,
          28,
          29,
          30,
          31,
          32,
          33,
          34,
          35,
          36,
          37,
          38,
          39,
          40,
          41,
          42,
          43,
          44,
          45,
          46,
          47,
          48,
          49,
          50,
          51,
          52,
          53,
          54,
          55,
          56,
          57,
          58,
          59,
          60,
          61,
          62,
          63,
          64,
          65,
          66,
          67,
          68,
          69,
          70,
          71,
          72,
          73,
          74,
          75,
          76,
          77,
          78,
          79,
          80,
          81,
          82,
          83,
          84,
          85,
          86,
          87,
          88,
          89,
          90,
          91,
          92,
          93,
          94,
          95,
          96,
          97,
          98,
          99,
          100,
          101,
          102,
          103,
          104,
          105,
          106,
          107,
          108,
          109,
          110,
          111,
          112,
          113,
          114,
          115,
          116,
          117,
          118,
          119,
          120,
          121,
          122,
          123,
          124,
          125,
          126,
          127,
          128,
          129,
          130,
          131,
          132,
          133,
          134,
          135,
          136,
          137,
          138,
          139,
          140,
          141,
          142,
          143,
          144,
          145,
          146,
          147,
          148,
          149,
          150,
          151,
          152,
          153,
          154,
          155,
          156,
          157,
          158,
          159,
          160,
          161,
          162,
          163,
          164
        ],
        "AcquisitionTime": [
          "103559.307500",
          "103601.817500",
          "103604.327500",
          "103606.837500",
          "103609.347500",
          "103611.857500",
          "103614.367500",
          "103616.877500",
          "103619.387500",
          "103621.897500",
          "103624.407500",
          "103626.917500",
          "103629.427500",
          "103631.937500",
          "103634.447500",
          "103636.957500",
          "103639.467500",
          "103641.977500",
          "103644.487500",
          "103646.997500",
          "103649.507500",
          "103652.017500",
          "103654.527500",
          "103657.037500",
          "103659.547500",
          "103702.057500",
          "103704.567500",
          "103707.077500",
          "103709.587500",
          "103712.097500",
          "103714.607500",
          "103717.117500",
          "103719.627500",
          "103722.137500",
          "103724.647500",
          "103727.157500",
          "103729.667500",
          "103732.177500",
          "103734.687500",
          "103737.197500",
          "103739.707500",
          "103742.217500",
          "103744.727500",
          "103747.237500",
          "103749.747500",
          "103752.257500",
          "103754.767500",
          "103757.277500",
          "103759.787500",
          "103802.297500",
          "103804.807500",
          "103807.320000",
          "103809.830000",
          "103812.340000",
          "103814.850000",
          "103817.360000",
          "103819.870000",
          "103822.380000",
          "103824.890000",
          "103827.400000",
          "103829.910000",
          "103832.420000",
          "103834.930000",
          "103837.440000",
          "103839.950000",
          "103842.460000",
          "103844.970000",
          "103847.480000",
          "103849.990000",
          "103852.500000",
          "103855.010000",
          "103857.520000",
          "103900.030000",
          "103902.540000",
          "103905.050000",
          "103907.560000",
          "103910.070000",
          "103912.580000",
          "103915.090000",
          "103917.600000",
          "103920.110000",
          "103922.620000",
          "103925.130000",
          "103927.640000",
          "103930.150000",
          "103932.660000",
          "103935.170000",
          "103937.680000",
          "103940.190000",
          "103942.700000",
          "103945.210000",
          "103947.720000",
          "103950.230000",
          "103952.740000",
          "103955.250000",
          "103957.760000",
          "104000.270000",
          "104002.780000",
          "104005.290000",
          "104007.800000",
          "104010.310000",
          "104012.820000",
          "104015.330000",
          "104017.840000",
          "104020.350000",
          "104022.860000",
          "104025.370000",
          "104027.880000",
          "104030.390000",
          "104032.900000",
          "104035.410000",
          "104037.920000",
          "104040.430000",
          "104042.942500",
          "104045.452500",
          "104047.962500",
          "104050.472500",
          "104052.982500",
          "104055.492500",
          "104058.002500",
          "104100.512500",
          "104103.022500",
          "104105.532500",
          "104108.042500",
          "104110.552500",
          "104113.062500",
          "104115.572500",
          "104118.082500",
          "104120.592500",
          "104123.102500",
          "104125.612500",
          "104128.122500",
          "104130.632500",
          "104133.142500",
          "104135.652500",
          "104138.162500",
          "104140.672500",
          "104143.182500",
          "104145.692500",
          "104148.202500",
          "104150.712500",
          "104153.222500",
          "104155.732500",
          "104158.242500",
          "104200.752500",
          "104203.262500",
          "104205.772500",
          "104208.282500",
          "104210.792500",
          "104213.302500",
          "104215.812500",
          "104218.322500",
          "104220.832500",
          "104223.342500",
          "104225.852500",
          "104228.362500",
          "104230.872500",
          "104233.382500",
          "104235.892500",
          "104238.402500",
          "104240.912500",
          "104243.422500",
          "104245.932500",
          "104248.442500"
        ],
        "ContentTime": [
          "103601.296000",
          "103603.796000",
          "103606.296000",
          "103608.796000",
          "103611.296000",
          "103613.796000",
          "103616.296000",
          "103618.796000",
          "103621.296000",
          "103623.796000",
          "103626.296000",
          "103628.796000",
          "103631.296000",
          "103633.796000",
          "103636.296000",
          "103638.796000",
          "103641.296000",
          "103643.796000",
          "103646.296000",
          "103648.796000",
          "103651.296000",
          "103653.796000",
          "103656.296000",
          "103658.796000",
          "103701.296000",
          "103703.796000",
          "103706.296000",
          "103708.796000",
          "103711.296000",
          "103713.796000",
          "103716.296000",
          "103718.796000",
          "103721.296000",
          "103723.796000",
          "103726.296000",
          "103728.796000",
          "103731.296000",
          "103733.796000",
          "103736.296000",
          "103738.796000",
          "103741.296000",
          "103743.796000",
          "103746.296000",
          "103748.796000",
          "103751.296000",
          "103753.796000",
          "103756.296000",
          "103758.796000",
          "103801.296000",
          "103803.796000",
          "103806.296000",
          "103808.796000",
          "103811.296000",
          "103813.796000",
          "103816.296000",
          "103818.796000",
          "103821.296000",
          "103823.796000",
          "103826.296000",
          "103828.796000",
          "103831.296000",
          "103833.796000",
          "103836.296000",
          "103838.796000",
          "103841.296000",
          "103843.796000",
          "103847.000000",
          "103848.796000",
          "103851.296000",
          "103853.796000",
          "103856.296000",
          "103858.796000",
          "103901.296000",
          "103903.796000",
          "103906.296000",
          "103908.796000",
          "103911.296000",
          "103913.796000",
          "103916.296000",
          "103918.796000",
          "103921.296000",
          "103923.796000",
          "103926.296000",
          "103928.796000",
          "103931.296000",
          "103933.796000",
          "103936.296000",
          "103938.796000",
          "103941.296000",
          "103943.796000",
          "103946.296000",
          "103948.796000",
          "103951.296000",
          "103953.796000",
          "103956.296000",
          "103958.796000",
          "104001.296000",
          "104003.796000",
          "104006.296000",
          "104008.796000",
          "104011.296000",
          "104013.796000",
          "104016.296000",
          "104018.796000",
          "104021.296000",
          "104023.796000",
          "104026.296000",
          "104028.796000",
          "104031.296000",
          "104033.796000",
          "104036.296000",
          "104038.796000",
          "104041.296000",
          "104043.796000",
          "104046.296000",
          "104048.796000",
          "104051.296000",
          "104053.796000",
          "104056.296000",
          "104058.796000",
          "104101.296000",
          "104103.796000",
          "104106.296000",
          "104108.796000",
          "104111.296000",
          "104113.796000",
          "104116.296000",
          "104118.796000",
          "104121.296000",
          "104123.796000",
          "104126.296000",
          "104128.796000",
          "104131.296000",
          "104133.796000",
          "104136.296000",
          "104138.796000",
          "104141.296000",
          "104143.796000",
          "104146.296000",
          "104148.796000",
          "104151.296000",
          "104153.796000",
          "104156.296000",
          "104158.796000",
          "104201.296000",
          "104203.796000",
          "104206.296000",
          "104208.796000",
          "104211.296000",
          "104213.796000",
          "104216.296000",
          "104218.796000",
          "104221.296000",
          "104223.796000",
          "104226.296000",
          "104228.796000",
          "104231.296000",
          "104233.796000",
          "104236.296000",
          "104238.796000",
          "104241.296000",
          "104243.796000",
          "104246.296000",
          "104248.562000"
        ],
        "InstanceCreationTime": [
          "103601.296000",
          "103603.796000",
          "103606.296000",
          "103608.796000",
          "103611.296000",
          "103613.796000",
          "103616.296000",
          "103618.796000",
          "103621.296000",
          "103623.796000",
          "103626.296000",
          "103628.796000",
          "103631.296000",
          "103633.796000",
          "103636.296000",
          "103638.796000",
          "103641.296000",
          "103643.796000",
          "103646.296000",
          "103648.796000",
          "103651.296000",
          "103653.796000",
          "103656.296000",
          "103658.796000",
          "103701.296000",
          "103703.796000",
          "103706.296000",
          "103708.796000",
          "103711.296000",
          "103713.796000",
          "103716.296000",
          "103718.796000",
          "103721.296000",
          "103723.796000",
          "103726.296000",
          "103728.796000",
          "103731.296000",
          "103733.796000",
          "103736.296000",
          "103738.796000",
          "103741.296000",
          "103743.796000",
          "103746.296000",
          "103748.796000",
          "103751.296000",
          "103753.796000",
          "103756.296000",
          "103758.796000",
          "103801.296000",
          "103803.796000",
          "103806.296000",
          "103808.796000",
          "103811.296000",
          "103813.796000",
          "103816.296000",
          "103818.796000",
          "103821.296000",
          "103823.796000",
          "103826.296000",
          "103828.796000",
          "103831.296000",
          "103833.796000",
          "103836.296000",
          "103838.796000",
          "103841.296000",
          "103843.796000",
          "103847.000000",
          "103848.796000",
          "103851.296000",
          "103853.796000",
          "103856.296000",
          "103858.796000",
          "103901.296000",
          "103903.796000",
          "103906.296000",
          "103908.796000",
          "103911.296000",
          "103913.796000",
          "103916.296000",
          "103918.796000",
          "103921.296000",
          "103923.796000",
          "103926.296000",
          "103928.796000",
          "103931.296000",
          "103933.796000",
          "103936.296000",
          "103938.796000",
          "103941.296000",
          "103943.796000",
          "103946.296000",
          "103948.796000",
          "103951.296000",
          "103953.796000",
          "103956.296000",
          "103958.796000",
          "104001.296000",
          "104003.796000",
          "104006.296000",
          "104008.796000",
          "104011.296000",
          "104013.796000",
          "104016.296000",
          "104018.796000",
          "104021.296000",
          "104023.796000",
          "104026.296000",
          "104028.796000",
          "104031.296000",
          "104033.796000",
          "104036.296000",
          "104038.796000",
          "104041.296000",
          "104043.796000",
          "104046.296000",
          "104048.796000",
          "104051.296000",
          "104053.796000",
          "104056.296000",
          "104058.796000",
          "104101.296000",
          "104103.796000",
          "104106.296000",
          "104108.796000",
          "104111.296000",
          "104113.796000",
          "104116.296000",
          "104118.796000",
          "104121.296000",
          "104123.796000",
          "104126.296000",
          "104128.796000",
          "104131.296000",
          "104133.796000",
          "104136.296000",
          "104138.796000",
          "104141.296000",
          "104143.796000",
          "104146.296000",
          "104148.796000",
          "104151.296000",
          "104153.796000",
          "104156.296000",
          "104158.796000",
          "104201.296000",
          "104203.796000",
          "104206.296000",
          "104208.796000",
          "104211.296000",
          "104213.796000",
          "104216.296000",
          "104218.796000",
          "104221.296000",
          "104223.796000",
          "104226.296000",
          "104228.796000",
          "104231.296000",
          "104233.796000",
          "104236.296000",
          "104238.796000",
          "104241.296000",
          "104243.796000",
          "104246.296000",
          "104248.562000"
        ],
        "InstanceNumber": [
          1,
          2,
          3,
          4,
          5,
          6,
          7,
          8,
          9,
          10,
          11,
          12,
          13,
          14,
          15,
          16,
          17,
          18,
          19,
          20,
          21,
          22,
          23,
          24,
          25,
          26,
          27,
          28,
          29,
          30,
          31,
          32,
          33,
          34,
          35,
          36,
          37,
          38,
          39,
          40,
          41,
          42,
          43,
          44,
          45,
          46,
          47,
          48,
          49,
          50,
          51,
          52,
          53,
          54,
          55,
          56,
          57,
          58,
          59,
          60,
          61,
          62,
          63,
          64,
          65,
          66,
          67,
          68,
          69,
          70,
          71,
          72,
          73,
          74,
          75,
          76,
          77,
          78,
          79,
          80,
          81,
          82,
          83,
          84,
          85,
          86,
          87,
          88,
          89,
          90,
          91,
          92,
          93,
          94,
          95,
          96,
          97,
          98,
          99,
          100,
          101,
          102,
          103,
          104,
          105,
          106,
          107,
          108,
          109,
          110,
          111,
          112,
          113,
          114,
          115,
          116,
          117,
          118,
          119,
          120,
          121,
          122,
          123,
          124,
          125,
          126,
          127,
          128,
          129,
          130,
          131,
          132,
          133,
          134,
          135,
          136,
          137,
          138,
          139,
          140,
          141,
          142,
          143,
          144,
          145,
          146,
          147,
          148,
          149,
          150,
          151,
          152,
          153,
          154,
          155,
          156,
          157,
          158,
          159,
          160,
          161,
          162,
          163,
          164
        ],
        "LargestImagePixelValue": [
          1426,
          1250,
          1396,
          1358,
          1256,
          1228,
          1287,
          1273,
          1258,
          1243,
          1354,
          1347,
          1420,
          1683,
          1430,
          1224,
          1454,
          1339,
          1225,
          1282,
          1313,
          1315,
          1285,
          1285,
          1288,
          1269,
          1345,
          1266,
          1290,
          1252,
          1250,
          1259,
          1259,
          1240,
          1254,
          1265,
          1329,
          1248,
          1260,
          1250,
          1242,
          1293,
          1500,
          1354,
          1248,
          1275,
          1264,
          1250,
          1237,
          1225,
          1298,
          1275,
          1292,
          1279,
          1310,
          1413,
          1263,
          1265,
          1265,
          1272,
          1225,
          1265,
          1281,
          1247,
          1322,
          1246,
          1245,
          1264,
          1267,
          1280,
          1293,
          1498,
          1243,
          1259,
          1243,
          1239,
          1223,
          1255,
          1444,
          1254,
          1255,
          1250,
          1241,
          1265,
          1271,
          1254,
          1254,
          1261,
          1367,
          1276,
          1266,
          1273,
          1510,
          1332,
          1283,
          1427,
          1250,
          1258,
          1282,
          1277,
          1292,
          1319,
          1326,
          1325,
          1235,
          1354,
          1243,
          1235,
          1291,
          1291,
          1248,
          1269,
          1282,
          1344,
          1243,
          1288,
          1248,
          1269,
          1244,
          1284,
          1270,
          1283,
          1238,
          1276,
          1286,
          1297,
          1236,
          1223,
          1279,
          1249,
          1252,
          1244,
          1263,
          1258,
          1275,
          1238,
          1217,
          1288,
          1296,
          1242,
          1310,
          1257,
          1264,
          1240,
          1252,
          1251,
          1225,
          1237,
          1254,
          1443,
          1275,
          1258,
          1256,
          1374,
          1268,
          1294,
          1246,
          1248,
          1246,
          1238,
          1186,
          1244,
          1248,
          1214
        ],
        "WindowCenter": [
          601.0,
          600.0,
          598.0,
          594.0,
          596.0,
          598.0,
          599.0,
          599.0,
          598.0,
          598.0,
          600.0,
          599.0,
          598.0,
          599.0,
          598.0,
          596.0,
          599.0,
          598.0,
          598.0,
          599.0,
          599.0,
          598.0,
          598.0,
          599.0,
          595.0,
          597.0,
          597.0,
          596.0,
          597.0,
          597.0,
          597.0,
          597.0,
          598.0,
          598.0,
          599.0,
          599.0,
          599.0,
          598.0,
          596.0,
          599.0,
          599.0,
          600.0,
          590.0,
          600.0,
          592.0,
          600.0,
          598.0,
          598.0,
          597.0,
          596.0,
          599.0,
          597.0,
          595.0,
          594.0,
          596.0,
          596.0,
          597.0,
          597.0,
          597.0,
          597.0,
          598.0,
          600.0,
          600.0,
          598.0,
          598.0,
          598.0,
          599.0,
          597.0,
          598.0,
          597.0,
          598.0,
          598.0,
          595.0,
          595.0,
          597.0,
          596.0,
          598.0,
          599.0,
          599.0,
          597.0,
          597.0,
          599.0,
          598.0,
          601.0,
          600.0,
          599.0,
          600.0,
          599.0,
          598.0,
          598.0,
          598.0,
          599.0,
          599.0,
          598.0,
          598.0,
          598.0,
          598.0,
          599.0,
          598.0,
          598.0,
          597.0,
          596.0,
          598.0,
          595.0,
          595.0,
          597.0,
          596.0,
          597.0,
          599.0,
          599.0,
          599.0,
          598.0,
          598.0,
          598.0,
          598.0,
          599.0,
          600.0,
          600.0,
          599.0,
          599.0,
          598.0,
          598.0,
          599.0,
          598.0,
          597.0,
          598.0,
          599.0,
          599.0,
          599.0,
          598.0,
          598.0,
          598.0,
          597.0,
          597.0,
          597.0,
          596.0,
          597.0,
          597.0,
          597.0,
          596.0,
          597.0,
          594.0,
          595.0,
          597.0,
          597.0,
          598.0,
          598.0,
          599.0,
          601.0,
          599.0,
