{
  "aor": 0.005696219512195122,
  "aqi": 0.02245770798780488,
  "bids_meta": {
    "AcquisitionMatrixPE": 64,
    "AcquisitionNumber": 1,
    "AcquisitionTime": "10:52:0.640000",
    "BandwidthPerPixelPhaseEncode": 26.483,
    "BaseResolution": 64,
    "BodyPartExamined": "HEAD",
    "CogAtlasID": "TODO",
    "ConversionSoftware": "dcm2niix",
    "ConversionSoftwareVersion": "v1.0.20171017 GCC6.3.0",
    "DerivedVendorReportedEchoSpacing": 0.000590001,
    "DeviceSerialNumber": "35177",
    "DwellTime": 4.1e-06,
    "EchoTime": 0.027,
    "EffectiveEchoSpacing": 0.000590001,
    "FlipAngle": 90,
    "ImageOrientationPatientDICOM": [
      0.997441,
      0.0462737,
      0.0545021,
      -0.0487864,
      0.997763,
      0.0457121
    ],
    "ImageType": [
      "ORIGINAL",
      "PRIMARY",
      "M",
      "ND",
      "NORM",
      "MOSAIC"
    ],
    "InPlanePhaseEncodingDirectionDICOM": "COL",
    "InstitutionAddress": "Scott_Ave._4525_St._Louis_MO_US_63110",
    "InstitutionName": "Washington_University",
    "InstitutionalDepartmentName": "Department",
    "MRAcquisitionType": "2D",
    "MagneticFieldStrength": 3,
    "Manufacturer": "Siemens",
    "ManufacturersModelName": "TrioTim",
    "Modality": "MR",
    "PartialFourier": 1,
    "PatientPosition": "HFS",
    "PercentPhaseFOV": 100,
    "PhaseEncodingDirection": "j-",
    "PhaseEncodingSteps": 64,
    "PhaseResolution": 1,
    "PixelBandwidth": 1905,
    "ProcedureStepDescription": "head_GREENE",
    "ProtocolName": "ep2d_bold_nonad_rest",
    "PulseSequenceDetails": "%SiemensSeq%_ep2d_bold",
    "ReceiveCoilName": "HeadMatrix",
    "ReconMatrixPE": 64,
    "RepetitionTime": 2.5,
    "SAR": 0.12563,
    "ScanOptions": "FS",
    "ScanningSequence": "EP",
    "SequenceName": "_epfid2d1_64",
    "SequenceVariant": "SK",
    "SeriesDescription": "ep2d_bold_nonad_rest",
    "SeriesNumber": 8,
    "ShimSetting": [
      -254,
      -19600,
      7985,
      341,
      -116,
      -521,
      247,
      -47
    ],
    "SliceThickness": 4,
    "SliceTiming": [
      1.255,
      0,
      1.335,
      0.08,
      1.4125,
      0.1575,
      1.49,
      0.2375,
      1.57,
      0.315,
      1.6475,
      0.3925,
      1.7275,
      0.4725,
      1.805,
      0.55,
      1.8825,
      0.6275,
      1.9625,
      0.7075,
      2.04,
      0.785,
      2.1175,
      0.8625,
      2.1975,
      0.9425,
      2.275,
      1.02,
      2.3525,
      1.1,
      2.4325,
      1.1775
    ],
    "SoftwareVersions": "syngo_MR_B17",
    "SpacingBetweenSlices": 4,
    "StationName": "MRC35177",
    "TaskName": "restfixationfixed",
    "TotalReadoutTime": 0.0371701,
    "TxRefAmp": 333.738,
    "dataset": "ds000256",
    "dcmmeta_affine": [
      [
        -3.9897634983062744,
        -0.19514571130275726,
        0.20905958116054535,
        138.79893493652344
      ],
      [
        -0.18509480357170105,
        3.9910504817962646,
        0.19301645457744598,
        -127.74984741210938
      ],
      [
        0.21800833940505981,
        -0.1828484684228897,
        3.989868640899658,
        -40.975791931152344
      ],
      [
        0.0,
        0.0,
        0.0,
        1.0
      ]
    ],
    "dcmmeta_reorient_transform": [
      [
        0.0,
        -1.0,
        0.0,
        63.0
      ],
      [
        1.0,
        0.0,
        0.0,
        0.0
      ],
      [
        0.0,
        0.0,
        1.0,
        0.0
      ],
      [
        0.0,
        0.0,
        0.0,
        1.0
      ]
    ],
    "dcmmeta_shape": [
      64,
      64,
      32,
      164
    ],
    "dcmmeta_slice_dim": 2,
    "dcmmeta_version": 0.6,
    "global": {
      "const": {
        "AccessionNumber": ".",
        "AcquisitionMatrix": [
          64,
          0,
          0,
          64
        ],
        "AngioFlag": "N",
        "BitsAllocated": 16,
        "BitsStored": 12,
        "BodyPartExamined": "HEAD",
        "Columns": 384,
        "DeidentificationMethodCodeSequence": [
          {
            "CodeMeaning": "XNAT Edit Script",
            "CodeValue": "625500",
            "CodingSchemeDesignator": "XNAT",
            "CodingSchemeVersion": "0.1"
          }
        ],
        "EchoNumbers": 1,
        "EchoTime": 27.0,
        "EchoTrainLength": 1,
        "FlipAngle": 90.0,
        "HighBit": 11,
        "ImageOrientationPatient": [
          0.99744085909659,
          0.04627370129051,
          0.05450208412099,
          -0.0487864273149,
          0.99776264059869,
          0.04571211584881
        ],
        "ImagePositionPatient": [
          -733.64359659692,
          -791.86959509544,
          -116.63233318301
        ],
        "ImageType": [
          "ORIGINAL",
          "PRIMARY",
          "M",
          "ND",
          "NORM",
          "MOSAIC"
        ],
        "ImagedNucleus": "1H",
        "ImagingFrequency": 123.256216,
        "InPlanePhaseEncodingDirection": "COL",
        "MRAcquisitionType": "2D",
        "MagneticFieldStrength": 3.0,
        "Manufacturer": "SIEMENS",
        "ManufacturerModelName": "TrioTim",
        "Modality": "MR",
        "NumberOfAverages": 1.0,
        "NumberOfPhaseEncodingSteps": 64,
        "PercentPhaseFieldOfView": 100.0,
        "PercentSampling": 100.0,
        "PerformedProcedureStepStartTime": "102513.546000",
        "PhotometricInterpretation": "MONOCHROME2",
        "PixelBandwidth": 1905.0,
        "PixelRepresentation": 0,
        "PixelSpacing": [
          4.0,
          4.0
        ],
        "PositionReferenceIndicator": "",
        "ProtocolName": "ep2d_bold_nonad_rest",
        "RepetitionTime": 2500.0,
        "Rows": 384,
        "SAR": 0.12563020719281,
        "SamplesPerPixel": 1,
        "ScanOptions": "FS",
        "ScanningSequence": "EP",
        "SequenceName": "*epfid2d1_64",
        "SequenceVariant": "SK",
        "SeriesDescription": "ep2d_bold_nonad_rest",
        "SeriesNumber": 8,
        "SeriesTime": "105202.937000",
        "SliceLocation": -39.782134296903,
        "SliceThickness": 4.0,
        "SmallestImagePixelValue": 0,
        "SoftwareVersions": "syngo MR B17",
        "SpacingBetweenSlices": 4.0000015213,
        "SpecificCharacterSet": "ISO_IR 100",
        "StudyID": "1",
        "StudyTime": "102513.500000",
        "TransmitCoilName": "Body",
        "VariableFlipAngleFlag": "N",
        "WindowCenterWidthExplanation": "Algo1",
        "dBdt": 0.0
      },
      "slices": {}
    },
    "modality": "bold",
    "subject_id": "CTS239",
    "task_id": "restfixationfixed",
    "time": {
      "samples": {
        "AcquisitionNumber": [
          1,
          2,
          3,
          4,
          5,
          6,
          7,
          8,
          9,
          10,
          11,
          12,
          13,
          14,
          15,
          16,
          17,
          18,
          19,
          20,
          21,
          22,
          23,
          24,
          25,
          26,
          27,
          28,
          29,
          30,
          31,
          32,
          33,
          34,
          35,
          36,
          37,
          38,
          39,
          40,
          41,
          42,
          43,
          44,
          45,
          46,
          47,
          48,
          49,
          50,
          51,
          52,
          53,
          54,
          55,
          56,
          57,
          58,
          59,
          60,
          61,
          62,
          63,
          64,
          65,
          66,
          67,
          68,
          69,
          70,
          71,
          72,
          73,
          74,
          75,
          76,
          77,
          78,
          79,
          80,
          81,
          82,
          83,
          84,
          85,
          86,
          87,
          88,
          89,
          90,
          91,
          92,
          93,
          94,
          95,
          96,
          97,
          98,
          99,
          100,
          101,
          102,
          103,
          104,
          105,
          106,
          107,
          108,
          109,
          110,
          111,
          112,
          113,
          114,
          115,
          116,
          117,
          118,
          119,
          120,
          121,
          122,
          123,
          124,
          125,
          126,
          127,
          128,
          129,
          130,
          131,
          132,
          133,
          134,
          135,
          136,
          137,
          138,
          139,
          140,
          141,
          142,
          143,
          144,
          145,
          146,
          147,
          148,
          149,
          150,
          151,
          152,
          153,
          154,
          155,
          156,
          157,
          158,
          159,
          160,
          161,
          162,
          163,
          164
        ],
        "AcquisitionTime": [
          "105200.640000",
          "105203.150000",
          "105205.660000",
          "105208.170000",
          "105210.680000",
          "105213.190000",
          "105215.700000",
          "105218.210000",
          "105220.720000",
          "105223.230000",
          "105225.740000",
          "105228.250000",
          "105230.760000",
          "105233.272500",
          "105235.782500",
          "105238.292500",
          "105240.802500",
          "105243.312500",
          "105245.822500",
          "105248.332500",
          "105250.842500",
          "105253.352500",
          "105255.862500",
          "105258.372500",
          "105300.882500",
          "105303.392500",
          "105305.902500",
          "105308.412500",
          "105310.922500",
          "105313.432500",
          "105315.942500",
          "105318.452500",
          "105320.962500",
          "105323.472500",
          "105325.982500",
          "105328.492500",
          "105331.002500",
          "105333.512500",
          "105336.022500",
          "105338.532500",
          "105341.042500",
          "105343.552500",
          "105346.062500",
          "105348.572500",
          "105351.082500",
          "105353.592500",
          "105356.102500",
          "105358.612500",
          "105401.122500",
          "105403.632500",
          "105406.142500",
          "105408.652500",
          "105411.162500",
          "105413.672500",
          "105416.182500",
          "105418.692500",
          "105421.202500",
          "105423.712500",
          "105426.222500",
          "105428.732500",
          "105431.242500",
          "105433.752500",
          "105436.262500",
          "105438.772500",
          "105441.282500",
          "105443.792500",
          "105446.302500",
          "105448.812500",
          "105451.322500",
          "105453.832500",
          "105456.342500",
          "105458.852500",
          "105501.362500",
          "105503.872500",
          "105506.382500",
          "105508.895000",
          "105511.405000",
          "105513.915000",
          "105516.425000",
          "105518.935000",
          "105521.445000",
          "105523.955000",
          "105526.465000",
          "105528.975000",
          "105531.485000",
          "105533.995000",
          "105536.505000",
          "105539.015000",
          "105541.525000",
          "105544.035000",
          "105546.545000",
          "105549.055000",
          "105551.565000",
          "105554.075000",
          "105556.585000",
          "105559.095000",
          "105601.605000",
          "105604.115000",
          "105606.625000",
          "105609.135000",
          "105611.645000",
          "105614.155000",
          "105616.665000",
          "105619.175000",
          "105621.685000",
          "105624.195000",
          "105626.705000",
          "105629.215000",
          "105631.725000",
          "105634.235000",
          "105636.745000",
          "105639.255000",
          "105641.765000",
          "105644.275000",
          "105646.785000",
          "105649.295000",
          "105651.805000",
          "105654.315000",
          "105656.825000",
          "105659.335000",
          "105701.845000",
          "105704.355000",
          "105706.865000",
          "105709.375000",
          "105711.885000",
          "105714.395000",
          "105716.905000",
          "105719.415000",
          "105721.925000",
          "105724.435000",
          "105726.945000",
          "105729.455000",
          "105731.965000",
          "105734.475000",
          "105736.985000",
          "105739.495000",
          "105742.005000",
          "105744.517500",
          "105747.027500",
          "105749.537500",
          "105752.047500",
          "105754.557500",
          "105757.067500",
          "105759.577500",
          "105802.087500",
          "105804.597500",
          "105807.107500",
          "105809.617500",
          "105812.127500",
          "105814.637500",
          "105817.147500",
          "105819.657500",
          "105822.167500",
          "105824.677500",
          "105827.187500",
          "105829.697500",
          "105832.207500",
          "105834.717500",
          "105837.227500",
          "105839.737500",
          "105842.247500",
          "105844.757500",
          "105847.267500",
          "105849.777500"
        ],
        "ContentTime": [
          "105202.937000",
          "105205.437000",
          "105207.937000",
          "105210.437000",
          "105212.937000",
          "105215.437000",
          "105217.937000",
          "105220.437000",
          "105222.937000",
          "105225.437000",
          "105227.937000",
          "105230.437000",
          "105232.937000",
          "105235.437000",
          "105237.937000",
          "105240.437000",
          "105242.937000",
          "105245.437000",
          "105247.937000",
          "105250.437000",
          "105252.937000",
          "105255.437000",
          "105257.937000",
          "105300.437000",
          "105302.937000",
          "105305.437000",
          "105307.937000",
          "105310.437000",
          "105312.937000",
          "105315.437000",
          "105317.937000",
          "105320.437000",
          "105322.937000",
          "105325.437000",
          "105327.937000",
          "105330.437000",
          "105332.937000",
          "105335.437000",
          "105337.937000",
          "105340.437000",
          "105342.937000",
          "105345.437000",
          "105347.937000",
          "105350.437000",
          "105352.937000",
          "105355.437000",
          "105357.937000",
          "105400.437000",
          "105402.937000",
          "105405.437000",
          "105407.937000",
          "105410.437000",
          "105412.937000",
          "105415.437000",
          "105417.937000",
          "105420.437000",
          "105422.937000",
          "105425.437000",
          "105427.937000",
          "105430.437000",
          "105432.937000",
          "105435.437000",
          "105437.937000",
          "105440.437000",
          "105442.937000",
          "105445.437000",
          "105447.937000",
          "105450.437000",
          "105452.937000",
          "105455.437000",
          "105457.937000",
          "105500.437000",
          "105502.937000",
          "105505.437000",
          "105507.937000",
          "105510.437000",
          "105512.937000",
          "105515.437000",
          "105517.937000",
          "105520.437000",
          "105522.937000",
          "105525.437000",
          "105527.937000",
          "105530.437000",
          "105532.937000",
          "105535.437000",
          "105537.937000",
          "105540.437000",
          "105542.937000",
          "105545.437000",
          "105547.937000",
          "105550.437000",
          "105552.937000",
          "105555.437000",
          "105557.937000",
          "105600.437000",
          "105602.937000",
          "105605.437000",
          "105607.937000",
          "105610.437000",
          "105612.937000",
          "105615.437000",
          "105617.937000",
          "105620.437000",
          "105622.937000",
          "105625.437000",
          "105627.937000",
          "105630.437000",
          "105632.937000",
          "105635.437000",
          "105637.937000",
          "105640.437000",
          "105642.937000",
          "105645.437000",
          "105647.937000",
          "105650.437000",
          "105652.937000",
          "105655.437000",
          "105657.937000",
          "105700.437000",
          "105702.937000",
          "105705.437000",
          "105707.937000",
          "105710.437000",
          "105712.937000",
          "105715.437000",
          "105717.937000",
          "105720.437000",
          "105722.937000",
          "105725.437000",
          "105727.937000",
          "105730.437000",
          "105732.937000",
          "105735.437000",
          "105737.937000",
          "105740.437000",
          "105742.937000",
          "105745.437000",
          "105747.937000",
          "105750.437000",
          "105752.937000",
          "105755.437000",
          "105757.937000",
          "105800.437000",
          "105802.937000",
          "105805.437000",
          "105807.937000",
          "105810.437000",
          "105812.937000",
          "105815.437000",
          "105817.937000",
          "105820.437000",
          "105822.937000",
          "105825.437000",
          "105827.937000",
          "105830.437000",
          "105832.937000",
          "105835.437000",
          "105837.937000",
          "105840.437000",
          "105842.937000",
          "105845.437000",
          "105847.937000",
          "105850.390000"
        ],
        "InstanceCreationTime": [
          "105202.937000",
          "105205.437000",
          "105207.937000",
          "105210.437000",
          "105212.937000",
          "105215.437000",
          "105217.937000",
          "105220.437000",
          "105222.937000",
          "105225.437000",
          "105227.937000",
          "105230.437000",
          "105232.937000",
          "105235.437000",
          "105237.937000",
          "105240.437000",
          "105242.937000",
          "105245.437000",
          "105247.937000",
          "105250.437000",
          "105252.937000",
          "105255.437000",
          "105257.937000",
          "105300.437000",
          "105302.937000",
          "105305.437000",
          "105307.937000",
          "105310.437000",
          "105312.937000",
          "105315.437000",
          "105317.937000",
          "105320.437000",
          "105322.937000",
          "105325.437000",
          "105327.937000",
          "105330.437000",
          "105332.937000",
          "105335.437000",
          "105337.937000",
          "105340.437000",
          "105342.937000",
          "105345.437000",
          "105347.937000",
          "105350.437000",
          "105352.937000",
          "105355.437000",
          "105357.937000",
          "105400.437000",
          "105402.937000",
          "105405.437000",
          "105407.937000",
          "105410.437000",
          "105412.937000",
          "105415.437000",
          "105417.937000",
          "105420.437000",
          "105422.937000",
          "105425.437000",
          "105427.937000",
          "105430.437000",
          "105432.937000",
          "105435.437000",
          "105437.937000",
          "105440.437000",
          "105442.937000",
          "105445.437000",
          "105447.937000",
          "105450.437000",
          "105452.937000",
          "105455.437000",
          "105457.937000",
          "105500.437000",
          "105502.937000",
          "105505.437000",
          "105507.937000",
          "105510.437000",
          "105512.937000",
          "105515.437000",
          "105517.937000",
          "105520.437000",
          "105522.937000",
          "105525.437000",
          "105527.937000",
          "105530.437000",
          "105532.937000",
          "105535.437000",
          "105537.937000",
          "105540.437000",
          "105542.937000",
          "105545.437000",
          "105547.937000",
          "105550.437000",
          "105552.937000",
          "105555.437000",
          "105557.937000",
          "105600.437000",
          "105602.937000",
          "105605.437000",
          "105607.937000",
          "105610.437000",
          "105612.937000",
          "105615.437000",
          "105617.937000",
          "105620.437000",
          "105622.937000",
          "105625.437000",
          "105627.937000",
          "105630.437000",
          "105632.937000",
          "105635.437000",
          "105637.937000",
          "105640.437000",
          "105642.937000",
          "105645.437000",
          "105647.937000",
          "105650.437000",
          "105652.937000",
          "105655.437000",
          "105657.937000",
          "105700.437000",
          "105702.937000",
          "105705.437000",
          "105707.937000",
          "105710.437000",
          "105712.937000",
          "105715.437000",
          "105717.937000",
          "105720.437000",
          "105722.937000",
          "105725.437000",
          "105727.937000",
          "105730.437000",
          "105732.937000",
          "105735.437000",
          "105737.937000",
          "105740.437000",
          "105742.937000",
          "105745.437000",
          "105747.937000",
          "105750.437000",
          "105752.937000",
          "105755.437000",
          "105757.937000",
          "105800.437000",
          "105802.937000",
          "105805.437000",
          "105807.937000",
          "105810.437000",
          "105812.937000",
          "105815.437000",
          "105817.937000",
          "105820.437000",
          "105822.937000",
          "105825.437000",
          "105827.937000",
          "105830.437000",
          "105832.937000",
          "105835.437000",
          "105837.937000",
          "105840.437000",
          "105842.937000",
          "105845.437000",
          "105847.937000",
          "105850.390000"
        ],
        "InstanceNumber": [
          1,
          2,
          3,
          4,
          5,
          6,
          7,
          8,
          9,
          10,
          11,
          12,
          13,
          14,
          15,
          16,
          17,
          18,
          19,
          20,
          21,
          22,
          23,
          24,
          25,
          26,
          27,
          28,
          29,
          30,
          31,
          32,
          33,
          34,
          35,
          36,
          37,
          38,
          39,
          40,
          41,
          42,
          43,
          44,
          45,
          46,
          47,
          48,
          49,
          50,
          51,
          52,
          53,
          54,
          55,
          56,
          57,
          58,
          59,
          60,
          61,
          62,
          63,
          64,
          65,
          66,
          67,
          68,
          69,
          70,
          71,
          72,
          73,
          74,
          75,
          76,
          77,
          78,
          79,
          80,
          81,
          82,
          83,
          84,
          85,
          86,
          87,
          88,
          89,
          90,
          91,
          92,
          93,
          94,
          95,
          96,
          97,
          98,
          99,
          100,
          101,
          102,
          103,
          104,
          105,
          106,
          107,
          108,
          109,
          110,
          111,
          112,
          113,
          114,
          115,
          116,
          117,
          118,
          119,
          120,
          121,
          122,
          123,
          124,
          125,
          126,
          127,
          128,
          129,
          130,
          131,
          132,
          133,
          134,
          135,
          136,
          137,
          138,
          139,
          140,
          141,
          142,
          143,
          144,
          145,
          146,
          147,
          148,
          149,
          150,
          151,
          152,
          153,
          154,
          155,
          156,
          157,
          158,
          159,
          160,
          161,
          162,
          163,
          164
        ],
        "LargestImagePixelValue": [
          1255,
          1300,
          1496,
          1220,
          1189,
          1257,
          1333,
          1185,
          1308,
          1216,
          1207,
          1339,
          1298,
          1511,
          1299,
          1231,
          1299,
          1317,
          1421,
          1401,
          1549,
          1209,
          1233,
          1206,
          1305,
          1283,
          1239,
          1210,
          1206,
          1277,
          1265,
          1234,
          1264,
          1341,
          1428,
          1417,
          1478,
          1308,
          1267,
          1517,
          1279,
          1272,
          1597,
          1664,
          1768,
          1309,
          1229,
          1191,
          1208,
          1267,
          1215,
          1267,
          1202,
          1227,
          1212,
          1221,
          1196,
          1209,
          1254,
          1193,
          1302,
          1224,
          1345,
          1267,
          1579,
          1531,
          1379,
          1260,
          1221,
          1239,
          1214,
          1298,
          1250,
          1689,
          1406,
          1274,
          1399,
          1367,
          1252,
          1254,
          1522,
          1361,
          1421,
          1244,
          1452,
          1349,
          1389,
          1419,
          1324,
          1351,
          1256,
          1249,
          1264,
          1223,
          1497,
          1459,
          1423,
          1515,
          1446,
          1372,
          1313,
          1250,
          1389,
          1295,
          1275,
          1260,
          1559,
          1420,
          1469,
          1387,
          1327,
          1611,
          1298,
          1257,
          1390,
          1276,
          1269,
          1566,
          1388,
          1283,
          1496,
          1411,
          1248,
          1693,
          1336,
          1318,
          1585,
          1747,
          1429,
          1235,
          1185,
          1195,
          1208,
          1346,
          1360,
          1274,
          1303,
          1493,
          1234,
          1232,
          1450,
          1511,
          1481,
          1821,
          1371,
          1345,
          1335,
          1216,
          1224,
          1210,
          1208,
          1275,
          1414,
          1262,
          1518,
          1466,
          1941,
          1540,
          1358,
          1401,
          1244,
          1328,
          1217,
          1196
        ],
        "WindowCenter": [
          599.0,
          601.0,
          598.0,
          595.0,
          597.0,
          598.0,
          598.0,
          596.0,
          598.0,
          598.0,
          598.0,
          600.0,
          600.0,
          599.0,
          600.0,
          597.0,
          598.0,
          595.0,
          599.0,
          596.0,
          597.0,
          593.0,
          598.0,
          599.0,
          597.0,
          597.0,
          600.0,
          601.0,
          601.0,
          598.0,
          600.0,
          603.0,
          603.0,
          599.0,
          604.0,
          604.0,
          598.0,
          596.0,
          596.0,
          595.0,
          599.0,
          602.0,
          597.0,
          601.0,
          595.0,
          597.0,
          597.0,
          598.0,
          595.0,
          596.0,
          596.0,
          599.0,
          598.0,
          598.0,
          597.0,
          598.0,
          601.0,
          599.0,
          598.0,
          599.0,
          599.0,
          601.0,
          588.0,
          601.0,
          601.0,
          601.0,
          597.0,
          598.0,
          594.0,
          596.0,
          603.0,
          598.0,
          598.0,
          603.0,
          599.0,
          598.0,
          599.0,
          598.0,
          600.0,
          601.0,
          599.0,
          602.0,
          598.0,
          601.0,
          601.0,
          600.0,
          601.0,
          601.0,
          598.0,
          600.0,
          598.0,
          597.0,
          601.0,
          598.0,
          602.0,
          599.0,
          602.0,
          598.0,
          597.0,
          596.0,
          599.0,
          600.0,
          596.0,
          600.0,
          599.0,
          600.0,
          599.0,
          597.0,
          598.0,
          596.0,
          600.0,
          601.0,
          595.0,
          599.0,
          597.0,
          597.0,
          601.0,
          601.0,
          602.0,
          601.0,
          599.0,
          598.0,
          596.0,
          596.0,
          600.0,
          601.0,
          602.0,
          596.0,
          594.0,
          597.0,
          597.0,
          597.0,
          598.0,
          596.0,
          601.0,
          599.0,
          602.0,
          599.0,
          602.0,
          602.0,
          601.0,
          599.0,
          603.0,
          603.0,
          598.0,
          601.0,
          598.0,
          598.0,
          598.0,
