{
  "aor": 0.0016016463414634148,
  "aqi": 0.003912084451219512,
  "bids_meta": {
    "AcquisitionMatrixPE": 64,
    "AcquisitionNumber": 1,
    "AcquisitionTime": "16:19:8.587500",
    "BandwidthPerPixelPhaseEncode": 26.483,
    "BaseResolution": 64,
    "BodyPartExamined": "HEAD",
    "CogAtlasID": "TODO",
    "ConversionSoftware": "dcm2niix",
    "ConversionSoftwareVersion": "v1.0.20171017 GCC6.3.0",
    "DerivedVendorReportedEchoSpacing": 0.000590001,
    "DeviceSerialNumber": "35177",
    "DwellTime": 4.1e-06,
    "EchoTime": 0.027,
    "EffectiveEchoSpacing": 0.000590001,
    "FlipAngle": 90,
    "ImageOrientationPatientDICOM": [
      0.998355,
      0.0435742,
      0.037263,
      -0.0487645,
      0.987152,
      0.152161
    ],
    "ImageType": [
      "ORIGINAL",
      "PRIMARY",
      "M",
      "ND",
      "NORM",
      "MOSAIC"
    ],
    "InPlanePhaseEncodingDirectionDICOM": "COL",
    "InstitutionAddress": "Scott_Ave._4525_St._Louis_MO_US_63110",
    "InstitutionName": "Washington_University",
    "InstitutionalDepartmentName": "Department",
    "MRAcquisitionType": "2D",
    "MagneticFieldStrength": 3,
    "Manufacturer": "Siemens",
    "ManufacturersModelName": "TrioTim",
    "Modality": "MR",
    "PartialFourier": 1,
    "PatientPosition": "HFS",
    "PercentPhaseFOV": 100,
    "PhaseEncodingDirection": "j-",
    "PhaseEncodingSteps": 64,
    "PhaseResolution": 1,
    "PixelBandwidth": 1905,
    "ProcedureStepDescription": "head_GREENE",
    "ProtocolName": "ep2d_bold_movie_rest_2B",
    "PulseSequenceDetails": "%SiemensSeq%_ep2d_bold",
    "ReceiveCoilName": "HeadMatrix",
    "ReconMatrixPE": 64,
    "RepetitionTime": 2.5,
    "SAR": 0.141138,
    "ScanOptions": "FS",
    "ScanningSequence": "EP",
    "SequenceName": "_epfid2d1_64",
    "SequenceVariant": "SK",
    "SeriesDescription": "ep2d_bold_movie_rest_2B",
    "SeriesNumber": 9,
    "ShimSetting": [
      -246,
      -19610,
      8015,
      466,
      -98,
      -597,
      473,
      205
    ],
    "SliceThickness": 4,
    "SliceTiming": [
      1.255,
      0,
      1.3325,
      0.08,
      1.4125,
      0.1575,
      1.49,
      0.235,
      1.57,
      0.315,
      1.6475,
      0.3925,
      1.725,
      0.47,
      1.805,
      0.55,
      1.8825,
      0.6275,
      1.96,
      0.705,
      2.04,
      0.785,
      2.1175,
      0.8625,
      2.195,
      0.9425,
      2.275,
      1.02,
      2.3525,
      1.0975,
      2.4325,
      1.1775
    ],
    "SoftwareVersions": "syngo_MR_B17",
    "SpacingBetweenSlices": 4,
    "StationName": "MRC35177",
    "TaskName": "restmovienofeedback",
    "TotalReadoutTime": 0.0371701,
    "TxRefAmp": 300.411,
    "dataset": "ds000256",
    "dcmmeta_affine": [
      [
        -3.993420124053955,
        -0.19505809247493744,
        0.12061609327793121,
        133.52166748046875
      ],
      [
        -0.17429672181606293,
        3.948608160018921,
        0.6149094104766846,
        -127.9537582397461
      ],
      [
        0.1490521878004074,
        -0.6086421012878418,
        3.9506125450134277,
        -5.128543853759766
      ],
      [
        0.0,
        0.0,
        0.0,
        1.0
      ]
    ],
    "dcmmeta_reorient_transform": [
      [
        0.0,
        -1.0,
        0.0,
        63.0
      ],
      [
        1.0,
        0.0,
        0.0,
        0.0
      ],
      [
        0.0,
        0.0,
        1.0,
        0.0
      ],
      [
        0.0,
        0.0,
        0.0,
        1.0
      ]
    ],
    "dcmmeta_shape": [
      64,
      64,
      32,
      164
    ],
    "dcmmeta_slice_dim": 2,
    "dcmmeta_version": 0.6,
    "global": {
      "const": {
        "AccessionNumber": ".",
        "AcquisitionMatrix": [
          64,
          0,
          0,
          64
        ],
        "AngioFlag": "N",
        "BitsAllocated": 16,
        "BitsStored": 12,
        "BodyPartExamined": "HEAD",
        "Columns": 384,
        "DeidentificationMethodCodeSequence": [
          {
            "CodeMeaning": "XNAT Edit Script",
            "CodeValue": "625500",
            "CodingSchemeDesignator": "XNAT",
            "CodingSchemeVersion": "0.1"
          }
        ],
        "EchoNumbers": 1,
        "EchoTime": 27.0,
        "EchoTrainLength": 1,
        "FlipAngle": 90.0,
        "HighBit": 11,
        "ImageOrientationPatient": [
          0.99835502515944,
          0.04357418048557,
          0.03726304515074,
          -0.0487645232764,
          0.98715206230156,
          0.15216053089878
        ],
        "ImagePositionPatient": [
          -728.97092893958,
          -780.47336004371,
          -164.70408634378
        ],
        "ImageType": [
          "ORIGINAL",
          "PRIMARY",
          "M",
          "ND",
          "NORM",
          "MOSAIC"
        ],
        "ImagedNucleus": "1H",
        "ImagingFrequency": 123.255993,
        "InPlanePhaseEncodingDirection": "COL",
        "MRAcquisitionType": "2D",
        "MagneticFieldStrength": 3.0,
        "Manufacturer": "SIEMENS",
        "ManufacturerModelName": "TrioTim",
        "Modality": "MR",
        "NumberOfAverages": 1.0,
        "NumberOfPhaseEncodingSteps": 64,
        "PercentPhaseFieldOfView": 100.0,
        "PercentSampling": 100.0,
        "PerformedProcedureStepStartTime": "154413.656000",
        "PhotometricInterpretation": "MONOCHROME2",
        "PixelBandwidth": 1905.0,
        "PixelRepresentation": 0,
        "PixelSpacing": [
          4.0,
          4.0
        ],
        "PositionReferenceIndicator": "",
        "ProtocolName": "ep2d_bold_movie_rest_2B",
        "RepetitionTime": 2500.0,
        "Rows": 384,
        "SAR": 0.14113791208406,
        "SamplesPerPixel": 1,
        "ScanOptions": "FS",
        "ScanningSequence": "EP",
        "SequenceName": "*epfid2d1_64",
        "SequenceVariant": "SK",
        "SeriesDescription": "ep2d_bold_movie_rest_2B",
        "SeriesNumber": 9,
        "SeriesTime": "161910.750000",
        "SliceLocation": -20.708998102533,
        "SliceThickness": 4.0,
        "SmallestImagePixelValue": 0,
        "SoftwareVersions": "syngo MR B17",
        "SpacingBetweenSlices": 4.0000002158948,
        "SpecificCharacterSet": "ISO_IR 100",
        "StudyID": "1",
        "StudyTime": "154413.609000",
        "TransmitCoilName": "Body",
        "VariableFlipAngleFlag": "N",
        "WindowCenterWidthExplanation": "Algo1",
        "dBdt": 0.0
      },
      "slices": {}
    },
    "modality": "bold",
    "subject_id": "CTS223",
    "task_id": "restmovienofeedback",
    "time": {
      "samples": {
        "AcquisitionNumber": [
          1,
          2,
          3,
          4,
          5,
          6,
          7,
          8,
          9,
          10,
          11,
          12,
          13,
          14,
          15,
          16,
          17,
          18,
          19,
          20,
          21,
          22,
          23,
          24,
          25,
          26,
          27,
          28,
          29,
          30,
          31,
          32,
          33,
          34,
          35,
          36,
          37,
          38,
          39,
          40,
          41,
          42,
          43,
          44,
          45,
          46,
          47,
          48,
          49,
          50,
          51,
          52,
          53,
          54,
          55,
          56,
          57,
          58,
          59,
          60,
          61,
          62,
          63,
          64,
          65,
          66,
          67,
          68,
          69,
          70,
          71,
          72,
          73,
          74,
          75,
          76,
          77,
          78,
          79,
          80,
          81,
          82,
          83,
          84,
          85,
          86,
          87,
          88,
          89,
          90,
          91,
          92,
          93,
          94,
          95,
          96,
          97,
          98,
          99,
          100,
          101,
          102,
          103,
          104,
          105,
          106,
          107,
          108,
          109,
          110,
          111,
          112,
          113,
          114,
          115,
          116,
          117,
          118,
          119,
          120,
          121,
          122,
          123,
          124,
          125,
          126,
          127,
          128,
          129,
          130,
          131,
          132,
          133,
          134,
          135,
          136,
          137,
          138,
          139,
          140,
          141,
          142,
          143,
          144,
          145,
          146,
          147,
          148,
          149,
          150,
          151,
          152,
          153,
          154,
          155,
          156,
          157,
          158,
          159,
          160,
          161,
          162,
          163,
          164
        ],
        "AcquisitionTime": [
          "161908.587500",
          "161911.097500",
          "161913.607500",
          "161916.117500",
          "161918.627500",
          "161921.137500",
          "161923.647500",
          "161926.157500",
          "161928.667500",
          "161931.177500",
          "161933.687500",
          "161936.197500",
          "161938.707500",
          "161941.217500",
          "161943.727500",
          "161946.237500",
          "161948.747500",
          "161951.257500",
          "161953.767500",
          "161956.277500",
          "161958.787500",
          "162001.297500",
          "162003.807500",
          "162006.317500",
          "162008.827500",
          "162011.337500",
          "162013.847500",
          "162016.357500",
          "162018.870000",
          "162021.380000",
          "162023.890000",
          "162026.400000",
          "162028.910000",
          "162031.420000",
          "162033.930000",
          "162036.440000",
          "162038.950000",
          "162041.460000",
          "162043.970000",
          "162046.480000",
          "162048.990000",
          "162051.500000",
          "162054.010000",
          "162056.520000",
          "162059.030000",
          "162101.540000",
          "162104.050000",
          "162106.560000",
          "162109.070000",
          "162111.580000",
          "162114.090000",
          "162116.600000",
          "162119.110000",
          "162121.620000",
          "162124.130000",
          "162126.640000",
          "162129.150000",
          "162131.660000",
          "162134.170000",
          "162136.680000",
          "162139.190000",
          "162141.700000",
          "162144.210000",
          "162146.720000",
          "162149.230000",
          "162151.740000",
          "162154.250000",
          "162156.760000",
          "162159.270000",
          "162201.780000",
          "162204.290000",
          "162206.800000",
          "162209.310000",
          "162211.820000",
          "162214.330000",
          "162216.840000",
          "162219.350000",
          "162221.860000",
          "162224.370000",
          "162226.880000",
          "162229.390000",
          "162231.900000",
          "162234.410000",
          "162236.920000",
          "162239.430000",
          "162241.940000",
          "162244.450000",
          "162246.960000",
          "162249.470000",
          "162251.980000",
          "162254.490000",
          "162257.002500",
          "162259.512500",
          "162302.022500",
          "162304.532500",
          "162307.042500",
          "162309.552500",
          "162312.062500",
          "162314.572500",
          "162317.082500",
          "162319.592500",
          "162322.102500",
          "162324.612500",
          "162327.122500",
          "162329.632500",
          "162332.142500",
          "162334.652500",
          "162337.162500",
          "162339.672500",
          "162342.182500",
          "162344.692500",
          "162347.202500",
          "162349.712500",
          "162352.222500",
          "162354.732500",
          "162357.242500",
          "162359.752500",
          "162402.262500",
          "162404.772500",
          "162407.282500",
          "162409.792500",
          "162412.302500",
          "162414.812500",
          "162417.322500",
          "162419.832500",
          "162422.342500",
          "162424.852500",
          "162427.362500",
          "162429.872500",
          "162432.382500",
          "162434.892500",
          "162437.402500",
          "162439.912500",
          "162442.422500",
          "162444.932500",
          "162447.442500",
          "162449.952500",
          "162452.462500",
          "162454.972500",
          "162457.482500",
          "162459.992500",
          "162502.502500",
          "162505.012500",
          "162507.522500",
          "162510.032500",
          "162512.542500",
          "162515.052500",
          "162517.562500",
          "162520.072500",
          "162522.582500",
          "162525.092500",
          "162527.602500",
          "162530.112500",
          "162532.625000",
          "162535.135000",
          "162537.645000",
          "162540.155000",
          "162542.665000",
          "162545.175000",
          "162547.685000",
          "162550.195000",
          "162552.705000",
          "162555.215000",
          "162557.725000"
        ],
        "ContentTime": [
          "161910.750000",
          "161913.234000",
          "161915.734000",
          "161918.234000",
          "161920.734000",
          "161923.234000",
          "161925.734000",
          "161928.234000",
          "161930.734000",
          "161933.234000",
          "161935.734000",
          "161938.234000",
          "161940.734000",
          "161943.234000",
          "161945.734000",
          "161948.234000",
          "161950.734000",
          "161953.234000",
          "161955.734000",
          "161958.234000",
          "162000.734000",
          "162003.234000",
          "162005.734000",
          "162008.234000",
          "162010.734000",
          "162013.234000",
          "162015.734000",
          "162018.234000",
          "162020.734000",
          "162023.234000",
          "162026.234000",
          "162028.234000",
          "162030.734000",
          "162033.234000",
          "162035.734000",
          "162038.234000",
          "162040.734000",
          "162043.234000",
          "162045.734000",
          "162048.234000",
          "162050.734000",
          "162053.234000",
          "162056.234000",
          "162058.234000",
          "162100.734000",
          "162103.234000",
          "162105.734000",
          "162108.234000",
          "162110.734000",
          "162113.234000",
          "162115.734000",
          "162118.234000",
          "162120.734000",
          "162123.234000",
          "162125.734000",
          "162128.234000",
          "162131.234000",
          "162133.234000",
          "162136.234000",
          "162138.734000",
          "162140.734000",
          "162143.234000",
          "162145.734000",
          "162148.234000",
          "162150.734000",
          "162153.234000",
          "162155.734000",
          "162158.234000",
          "162200.734000",
          "162203.234000",
          "162205.734000",
          "162208.234000",
          "162210.734000",
          "162213.234000",
          "162215.734000",
          "162218.234000",
          "162220.734000",
          "162223.234000",
          "162225.734000",
          "162228.234000",
          "162230.734000",
          "162233.234000",
          "162235.734000",
          "162238.234000",
          "162240.734000",
          "162243.234000",
          "162245.734000",
          "162248.234000",
          "162250.734000",
          "162253.734000",
          "162255.734000",
          "162258.234000",
          "162300.734000",
          "162303.234000",
          "162305.734000",
          "162308.234000",
          "162310.734000",
          "162313.234000",
          "162315.734000",
          "162318.734000",
          "162320.734000",
          "162323.234000",
          "162326.234000",
          "162328.234000",
          "162330.734000",
          "162333.234000",
          "162336.234000",
          "162338.234000",
          "162340.734000",
          "162343.234000",
          "162345.734000",
          "162348.234000",
          "162350.734000",
          "162353.234000",
          "162355.734000",
          "162358.234000",
          "162400.734000",
          "162403.234000",
          "162406.234000",
          "162408.234000",
          "162410.734000",
          "162413.234000",
          "162415.734000",
          "162418.234000",
          "162420.734000",
          "162423.234000",
          "162425.734000",
          "162428.234000",
          "162430.734000",
          "162433.234000",
          "162435.734000",
          "162438.234000",
          "162440.734000",
          "162443.234000",
          "162445.734000",
          "162448.234000",
          "162450.734000",
          "162453.234000",
          "162455.734000",
          "162458.234000",
          "162500.734000",
          "162503.234000",
          "162505.734000",
          "162508.234000",
          "162510.734000",
          "162513.234000",
          "162515.734000",
          "162518.234000",
          "162520.734000",
          "162523.234000",
          "162526.234000",
          "162528.234000",
          "162530.734000",
          "162533.234000",
          "162535.734000",
          "162538.234000",
          "162540.734000",
          "162543.234000",
          "162545.734000",
          "162548.234000",
          "162550.734000",
          "162553.234000",
          "162556.234000",
          "162558.234000"
        ],
        "InstanceCreationTime": [
          "161910.750000",
          "161913.234000",
          "161915.734000",
          "161918.234000",
          "161920.734000",
          "161923.234000",
          "161925.734000",
          "161928.234000",
          "161930.734000",
          "161933.234000",
          "161935.734000",
          "161938.234000",
          "161940.734000",
          "161943.234000",
          "161945.734000",
          "161948.234000",
          "161950.734000",
          "161953.234000",
          "161955.734000",
          "161958.234000",
          "162000.734000",
          "162003.234000",
          "162005.734000",
          "162008.234000",
          "162010.734000",
          "162013.234000",
          "162015.734000",
          "162018.234000",
          "162020.734000",
          "162023.234000",
          "162026.234000",
          "162028.234000",
          "162030.734000",
          "162033.234000",
          "162035.734000",
          "162038.234000",
          "162040.734000",
          "162043.234000",
          "162045.734000",
          "162048.234000",
          "162050.734000",
          "162053.234000",
          "162056.234000",
          "162058.234000",
          "162100.734000",
          "162103.234000",
          "162105.734000",
          "162108.234000",
          "162110.734000",
          "162113.234000",
          "162115.734000",
          "162118.234000",
          "162120.734000",
          "162123.234000",
          "162125.734000",
          "162128.234000",
          "162131.234000",
          "162133.234000",
          "162136.234000",
          "162138.734000",
          "162140.734000",
          "162143.234000",
          "162145.734000",
          "162148.234000",
          "162150.734000",
          "162153.234000",
          "162155.734000",
          "162158.234000",
          "162200.734000",
          "162203.234000",
          "162205.734000",
          "162208.234000",
          "162210.734000",
          "162213.234000",
          "162215.734000",
          "162218.234000",
          "162220.734000",
          "162223.234000",
          "162225.734000",
          "162228.234000",
          "162230.734000",
          "162233.234000",
          "162235.734000",
          "162238.234000",
          "162240.734000",
          "162243.234000",
          "162245.734000",
          "162248.234000",
          "162250.734000",
          "162253.734000",
          "162255.734000",
          "162258.234000",
          "162300.734000",
          "162303.234000",
          "162305.734000",
          "162308.234000",
          "162310.734000",
          "162313.234000",
          "162315.734000",
          "162318.734000",
          "162320.734000",
          "162323.234000",
          "162326.234000",
          "162328.234000",
          "162330.734000",
          "162333.234000",
          "162336.234000",
          "162338.234000",
          "162340.734000",
          "162343.234000",
          "162345.734000",
          "162348.234000",
          "162350.734000",
          "162353.234000",
          "162355.734000",
          "162358.234000",
          "162400.734000",
          "162403.234000",
          "162406.234000",
          "162408.234000",
          "162410.734000",
          "162413.234000",
          "162415.734000",
          "162418.234000",
          "162420.734000",
          "162423.234000",
          "162425.734000",
          "162428.234000",
          "162430.734000",
          "162433.234000",
          "162435.734000",
          "162438.234000",
          "162440.734000",
          "162443.234000",
          "162445.734000",
          "162448.234000",
          "162450.734000",
          "162453.234000",
          "162455.734000",
          "162458.234000",
          "162500.734000",
          "162503.234000",
          "162505.734000",
          "162508.234000",
          "162510.734000",
          "162513.234000",
          "162515.734000",
          "162518.234000",
          "162520.734000",
          "162523.234000",
          "162526.234000",
          "162528.234000",
          "162530.734000",
          "162533.234000",
          "162535.734000",
          "162538.234000",
          "162540.734000",
          "162543.234000",
          "162545.734000",
          "162548.234000",
          "162550.734000",
          "162553.234000",
          "162556.234000",
          "162558.234000"
        ],
        "InstanceNumber": [
          1,
          2,
          3,
          4,
          5,
          6,
          7,
          8,
          9,
          10,
          11,
          12,
          13,
          14,
          15,
          16,
          17,
          18,
          19,
          20,
          21,
          22,
          23,
          24,
          25,
          26,
          27,
          28,
          29,
          30,
          31,
          32,
          33,
          34,
          35,
          36,
          37,
          38,
          39,
          40,
          41,
          42,
          43,
          44,
          45,
          46,
          47,
          48,
          49,
          50,
          51,
          52,
          53,
          54,
          55,
          56,
          57,
          58,
          59,
          60,
          61,
          62,
          63,
          64,
          65,
          66,
          67,
          68,
          69,
          70,
          71,
          72,
          73,
          74,
          75,
          76,
          77,
          78,
          79,
          80,
          81,
          82,
          83,
          84,
          85,
          86,
          87,
          88,
          89,
          90,
          91,
          92,
          93,
          94,
          95,
          96,
          97,
          98,
          99,
          100,
          101,
          102,
          103,
          104,
          105,
          106,
          107,
          108,
          109,
          110,
          111,
          112,
          113,
          114,
          115,
          116,
          117,
          118,
          119,
          120,
          121,
          122,
          123,
          124,
          125,
          126,
          127,
          128,
          129,
          130,
          131,
          132,
          133,
          134,
          135,
          136,
          137,
          138,
          139,
          140,
          141,
          142,
          143,
          144,
          145,
          146,
          147,
          148,
          149,
          150,
          151,
          152,
          153,
          154,
          155,
          156,
          157,
          158,
          159,
          160,
          161,
          162,
          163,
          164
        ],
        "LargestImagePixelValue": [
          1972,
          1777,
          1598,
          1515,
          1768,
          1709,
          1668,
          1531,
          2112,
          1996,
          1928,
          1779,
          1954,
          1838,
          1657,
          1522,
          1908,
          1898,
          1990,
          1801,
          1733,
          2074,
          1905,
          1788,
          1682,
          1698,
          1870,
          1974,
          1955,
          2031,
          2002,
          1939,
          1644,
          1679,
          1695,
          1770,
          1864,
          1818,
          1867,
          1937,
          1952,
          1862,
          1800,
          1916,
          1926,
          1885,
          1748,
          1817,
          1812,
          1814,
          1785,
          1918,
          1870,
          1655,
          1950,
          2049,
          2035,
          1851,
          1694,
          1822,
          1900,
          1522,
          1525,
          1773,
          1906,
          1798,
          1646,
          1871,
          1928,
          1751,
          1743,
          1833,
          1841,
          1917,
          1801,
          1596,
          1628,
          1832,
          1880,
          1929,
          2092,
          2068,
          1953,
          2004,
          1999,
          1692,
          1627,
          1763,
          1818,
          1743,
          1837,
          1857,
          1878,
          2094,
          1912,
          1815,
          1768,
          1752,
          1676,
          1520,
          1672,
          1797,
          1689,
          2049,
          2135,
          2088,
          2003,
          1869,
          1617,
          1552,
          1758,
          1926,
          1912,
          2023,
          1937,
          1698,
          1516,
          1493,
          1627,
          1580,
          1631,
          1761,
          1784,
          1906,
          1983,
          1932,
          1851,
          1958,
          2074,
          2075,
          1837,
          1892,
          2054,
          1921,
          1861,
          1745,
          1924,
          1705,
          1592,
          1665,
          1644,
          1495,
          1541,
          1684,
          1728,
          1618,
          1646,
          1629,
          1689,
          1755,
          1737,
          1545,
          1909,
          1908,
          1800,
          1836,
          1693,
          1835,
          1732,
          1678,
          1577,
          1578,
          1810,
          1993
        ],
        "WindowCenter": [
          681.0,
          682.0,
          681.0,
          681.0,
          683.0,
          680.0,
          682.0,
          681.0,
          682.0,
          682.0,
          682.0,
          681.0,
          681.0,
          681.0,
          682.0,
          683.0,
          684.0,
          683.0,
          683.0,
          681.0,
          682.0,
          684.0,
          682.0,
          682.0,
          682.0,
          681.0,
          681.0,
          680.0,
          683.0,
          683.0,
          681.0,
          682.0,
          682.0,
          681.0,
          683.0,
          682.0,
          681.0,
          682.0,
          680.0,
          681.0,
          682.0,
          680.0,
          681.0,
          683.0,
          682.0,
          683.0,
          682.0,
          682.0,
          681.0,
          681.0,
          681.0,
          681.0,
          682.0,
          683.0,
          683.0,
          683.0,
          683.0,
          682.0,
          682.0,
          681.0,
          682.0,
          680.0,
          683.0,
          682.0,
          683.0,
          682.0,
          682.0,
          681.0,
          682.0,
          683.0,
          681.0,
          681.0,
          684.0,
          682.0,
          682.0,
          681.0,
          681.0,
          683.0,
          681.0,
          682.0,
          682.0,
          683.0,
          681.0,
          683.0,
          681.0,
          682.0,
          682.0,
          682.0,
          682.0,
          682.0,
          683.0,
          683.0,
          683.0,
          684.0,
          683.0,
          682.0,
          682.0,
          682.0,
          682.0,
          682.0,
          682.0,
          681.0,
          682.0,
          682.0,
          682.0,
          683.0,
          682.0,
          682.0,
          680.0,
          682.0,
          684.0,
          682.0,
          682.0,
          683.0,
          679.0,
          679.0,
          680.0,
          682.0,
          681.0,
          684.0,
          682.0,
          683.0,
          683.0,
          682.0,
          682.0,
          683.0,
          681.0,
          682.0,
          682.0,
          683.0,
          681.0,
          683.0,
          682.0,
          683.0,
          680.0,
          680.0,
          681.0,
          680.0,
          682.0,
          680.0,
          679.0,
          682.0,
          680.0,
          683.0,
          682.0,
          681.0,
          682.0,
          681.0,
          682.0,
