{
  "aor": 0.0024246951219512197,
  "aqi": 0.0037156663414634142,
  "bids_meta": {
    "AcquisitionMatrixPE": 64,
    "AcquisitionNumber": 1,
    "AcquisitionTime": "16:27:58.732500",
    "BandwidthPerPixelPhaseEncode": 26.483,
    "BaseResolution": 64,
    "BodyPartExamined": "HEAD",
    "CogAtlasID": "TODO",
    "ConversionSoftware": "dcm2niix",
    "ConversionSoftwareVersion": "v1.0.20171017 GCC6.3.0",
    "DerivedVendorReportedEchoSpacing": 0.000590001,
    "DeviceSerialNumber": "35177",
    "DwellTime": 4.1e-06,
    "EchoTime": 0.027,
    "EffectiveEchoSpacing": 0.000590001,
    "FlipAngle": 90,
    "ImageOrientationPatientDICOM": [
      0.998355,
      0.0435742,
      0.037263,
      -0.0487645,
      0.987152,
      0.152161
    ],
    "ImageType": [
      "ORIGINAL",
      "PRIMARY",
      "M",
      "ND",
      "NORM",
      "MOSAIC"
    ],
    "InPlanePhaseEncodingDirectionDICOM": "COL",
    "InstitutionAddress": "Scott_Ave._4525_St._Louis_MO_US_63110",
    "InstitutionName": "Washington_University",
    "InstitutionalDepartmentName": "Department",
    "MRAcquisitionType": "2D",
    "MagneticFieldStrength": 3,
    "Manufacturer": "Siemens",
    "ManufacturersModelName": "TrioTim",
    "Modality": "MR",
    "PartialFourier": 1,
    "PatientPosition": "HFS",
    "PercentPhaseFOV": 100,
    "PhaseEncodingDirection": "j-",
    "PhaseEncodingSteps": 64,
    "PhaseResolution": 1,
    "PixelBandwidth": 1905,
    "ProcedureStepDescription": "head_GREENE",
    "ProtocolName": "ep2d_bold_feedback_rest",
    "PulseSequenceDetails": "%SiemensSeq%_ep2d_bold",
    "ReceiveCoilName": "HeadMatrix",
    "ReconMatrixPE": 64,
    "RepetitionTime": 2.5,
    "SAR": 0.141138,
    "ScanOptions": "FS",
    "ScanningSequence": "EP",
    "SequenceName": "_epfid2d1_64",
    "SequenceVariant": "SK",
    "SeriesDescription": "ep2d_bold_feedback_rest",
    "SeriesNumber": 10,
    "ShimSetting": [
      -246,
      -19610,
      8015,
      466,
      -98,
      -597,
      473,
      205
    ],
    "SliceThickness": 4,
    "SliceTiming": [
      1.255,
      0,
      1.3325,
      0.0775,
      1.41,
      0.155,
      1.49,
      0.235,
      1.5675,
      0.3125,
      1.645,
      0.39,
      1.725,
      0.47,
      1.8025,
      0.5475,
      1.8825,
      0.6275,
      1.96,
      0.705,
      2.0375,
      0.7825,
      2.1175,
      0.8625,
      2.195,
      0.94,
      2.2725,
      1.0175,
      2.3525,
      1.0975,
      2.43,
      1.175
    ],
    "SoftwareVersions": "syngo_MR_B17",
    "SpacingBetweenSlices": 4,
    "StationName": "MRC35177",
    "TaskName": "restfixationfixed",
    "TotalReadoutTime": 0.0371701,
    "TxRefAmp": 300.411,
    "dataset": "ds000256",
    "dcmmeta_affine": [
      [
        -3.993420124053955,
        -0.19505809247493744,
        0.12061609327793121,
        133.52166748046875
      ],
      [
        -0.17429672181606293,
        3.948608160018921,
        0.6149094104766846,
        -127.9537582397461
      ],
      [
        0.1490521878004074,
        -0.6086421012878418,
        3.9506125450134277,
        -5.128543853759766
      ],
      [
        0.0,
        0.0,
        0.0,
        1.0
      ]
    ],
    "dcmmeta_reorient_transform": [
      [
        0.0,
        -1.0,
        0.0,
        63.0
      ],
      [
        1.0,
        0.0,
        0.0,
        0.0
      ],
      [
        0.0,
        0.0,
        1.0,
        0.0
      ],
      [
        0.0,
        0.0,
        0.0,
        1.0
      ]
    ],
    "dcmmeta_shape": [
      64,
      64,
      32,
      164
    ],
    "dcmmeta_slice_dim": 2,
    "dcmmeta_version": 0.6,
    "global": {
      "const": {
        "AccessionNumber": ".",
        "AcquisitionMatrix": [
          64,
          0,
          0,
          64
        ],
        "AngioFlag": "N",
        "BitsAllocated": 16,
        "BitsStored": 12,
        "BodyPartExamined": "HEAD",
        "Columns": 384,
        "DeidentificationMethodCodeSequence": [
          {
            "CodeMeaning": "XNAT Edit Script",
            "CodeValue": "625500",
            "CodingSchemeDesignator": "XNAT",
            "CodingSchemeVersion": "0.1"
          }
        ],
        "EchoNumbers": 1,
        "EchoTime": 27.0,
        "EchoTrainLength": 1,
        "FlipAngle": 90.0,
        "HighBit": 11,
        "ImageOrientationPatient": [
          0.99835502515944,
          0.04357418048557,
          0.03726304515074,
          -0.0487645232764,
          0.98715206230156,
          0.15216053089878
        ],
        "ImagePositionPatient": [
          -728.97092893958,
          -780.47336004371,
          -164.70408634378
        ],
        "ImageType": [
          "ORIGINAL",
          "PRIMARY",
          "M",
          "ND",
          "NORM",
          "MOSAIC"
        ],
        "ImagedNucleus": "1H",
        "ImagingFrequency": 123.255995,
        "InPlanePhaseEncodingDirection": "COL",
        "MRAcquisitionType": "2D",
        "MagneticFieldStrength": 3.0,
        "Manufacturer": "SIEMENS",
        "ManufacturerModelName": "TrioTim",
        "Modality": "MR",
        "NumberOfAverages": 1.0,
        "NumberOfPhaseEncodingSteps": 64,
        "PercentPhaseFieldOfView": 100.0,
        "PercentSampling": 100.0,
        "PerformedProcedureStepStartTime": "154413.656000",
        "PhotometricInterpretation": "MONOCHROME2",
        "PixelBandwidth": 1905.0,
        "PixelRepresentation": 0,
        "PixelSpacing": [
          4.0,
          4.0
        ],
        "PositionReferenceIndicator": "",
        "ProtocolName": "ep2d_bold_feedback_rest",
        "RepetitionTime": 2500.0,
        "Rows": 384,
        "SAR": 0.14113791208406,
        "SamplesPerPixel": 1,
        "ScanOptions": "FS",
        "ScanningSequence": "EP",
        "SequenceName": "*epfid2d1_64",
        "SequenceVariant": "SK",
        "SeriesDescription": "ep2d_bold_feedback_rest",
        "SeriesNumber": 10,
        "SeriesTime": "162800.531000",
        "SliceLocation": -20.708998102533,
        "SliceThickness": 4.0,
        "SmallestImagePixelValue": 0,
        "SoftwareVersions": "syngo MR B17",
        "SpacingBetweenSlices": 4.0000002158948,
        "SpecificCharacterSet": "ISO_IR 100",
        "StudyID": "1",
        "StudyTime": "154413.609000",
        "TransmitCoilName": "Body",
        "VariableFlipAngleFlag": "N",
        "WindowCenterWidthExplanation": "Algo1",
        "dBdt": 0.0
      },
      "slices": {}
    },
    "modality": "bold",
    "subject_id": "CTS223",
    "task_id": "restfixationfixed",
    "time": {
      "samples": {
        "AcquisitionNumber": [
          1,
          2,
          3,
          4,
          5,
          6,
          7,
          8,
          9,
          10,
          11,
          12,
          13,
          14,
          15,
          16,
          17,
          18,
          19,
          20,
          21,
          22,
          23,
          24,
          25,
          26,
          27,
          28,
          29,
          30,
          31,
          32,
          33,
          34,
          35,
          36,
          37,
          38,
          39,
          40,
          41,
          42,
          43,
          44,
          45,
          46,
          47,
          48,
          49,
          50,
          51,
          52,
          53,
          54,
          55,
          56,
          57,
          58,
          59,
          60,
          61,
          62,
          63,
          64,
          65,
          66,
          67,
          68,
          69,
          70,
          71,
          72,
          73,
          74,
          75,
          76,
          77,
          78,
          79,
          80,
          81,
          82,
          83,
          84,
          85,
          86,
          87,
          88,
          89,
          90,
          91,
          92,
          93,
          94,
          95,
          96,
          97,
          98,
          99,
          100,
          101,
          102,
          103,
          104,
          105,
          106,
          107,
          108,
          109,
          110,
          111,
          112,
          113,
          114,
          115,
          116,
          117,
          118,
          119,
          120,
          121,
          122,
          123,
          124,
          125,
          126,
          127,
          128,
          129,
          130,
          131,
          132,
          133,
          134,
          135,
          136,
          137,
          138,
          139,
          140,
          141,
          142,
          143,
          144,
          145,
          146,
          147,
          148,
          149,
          150,
          151,
          152,
          153,
          154,
          155,
          156,
          157,
          158,
          159,
          160,
          161,
          162,
          163,
          164
        ],
        "AcquisitionTime": [
          "162758.732500",
          "162801.242500",
          "162803.752500",
          "162806.262500",
          "162808.772500",
          "162811.282500",
          "162813.792500",
          "162816.302500",
          "162818.812500",
          "162821.322500",
          "162823.832500",
          "162826.342500",
          "162828.852500",
          "162831.362500",
          "162833.872500",
          "162836.382500",
          "162838.892500",
          "162841.402500",
          "162843.912500",
          "162846.422500",
          "162848.932500",
          "162851.442500",
          "162853.952500",
          "162856.462500",
          "162858.972500",
          "162901.482500",
          "162903.992500",
          "162906.502500",
          "162909.012500",
          "162911.522500",
          "162914.032500",
          "162916.542500",
          "162919.052500",
          "162921.562500",
          "162924.072500",
          "162926.582500",
          "162929.092500",
          "162931.602500",
          "162934.112500",
          "162936.622500",
          "162939.132500",
          "162941.642500",
          "162944.152500",
          "162946.662500",
          "162949.172500",
          "162951.682500",
          "162954.192500",
          "162956.702500",
          "162959.212500",
          "163001.722500",
          "163004.232500",
          "163006.742500",
          "163009.252500",
          "163011.762500",
          "163014.272500",
          "163016.782500",
          "163019.292500",
          "163021.802500",
          "163024.312500",
          "163026.822500",
          "163029.335000",
          "163031.845000",
          "163034.355000",
          "163036.865000",
          "163039.375000",
          "163041.885000",
          "163044.395000",
          "163046.905000",
          "163049.415000",
          "163051.925000",
          "163054.435000",
          "163056.945000",
          "163059.455000",
          "163101.965000",
          "163104.475000",
          "163106.985000",
          "163109.495000",
          "163112.005000",
          "163114.515000",
          "163117.025000",
          "163119.535000",
          "163122.045000",
          "163124.555000",
          "163127.065000",
          "163129.575000",
          "163132.085000",
          "163134.595000",
          "163137.105000",
          "163139.615000",
          "163142.125000",
          "163144.635000",
          "163147.145000",
          "163149.655000",
          "163152.165000",
          "163154.675000",
          "163157.185000",
          "163159.695000",
          "163202.205000",
          "163204.715000",
          "163207.225000",
          "163209.735000",
          "163212.245000",
          "163214.755000",
          "163217.265000",
          "163219.775000",
          "163222.285000",
          "163224.795000",
          "163227.305000",
          "163229.815000",
          "163232.325000",
          "163234.835000",
          "163237.345000",
          "163239.855000",
          "163242.365000",
          "163244.875000",
          "163247.385000",
          "163249.895000",
          "163252.405000",
          "163254.915000",
          "163257.425000",
          "163259.935000",
          "163302.445000",
          "163304.957500",
          "163307.467500",
          "163309.977500",
          "163312.487500",
          "163314.997500",
          "163317.507500",
          "163320.017500",
          "163322.527500",
          "163325.037500",
          "163327.547500",
          "163330.057500",
          "163332.567500",
          "163335.077500",
          "163337.587500",
          "163340.097500",
          "163342.607500",
          "163345.117500",
          "163347.627500",
          "163350.137500",
          "163352.647500",
          "163355.157500",
          "163357.667500",
          "163400.177500",
          "163402.687500",
          "163405.197500",
          "163407.707500",
          "163410.217500",
          "163412.727500",
          "163415.237500",
          "163417.747500",
          "163420.257500",
          "163422.767500",
          "163425.277500",
          "163427.787500",
          "163430.297500",
          "163432.807500",
          "163435.317500",
          "163437.827500",
          "163440.337500",
          "163442.847500",
          "163445.357500",
          "163447.867500"
        ],
        "ContentTime": [
          "162800.531000",
          "162803.031000",
          "162805.531000",
          "162808.031000",
          "162810.531000",
          "162813.031000",
          "162815.531000",
          "162818.031000",
          "162820.531000",
          "162823.031000",
          "162825.531000",
          "162828.031000",
          "162830.531000",
          "162833.031000",
          "162835.531000",
          "162838.031000",
          "162840.531000",
          "162843.031000",
          "162845.531000",
          "162848.031000",
          "162850.531000",
          "162853.031000",
          "162855.531000",
          "162858.031000",
          "162900.531000",
          "162903.031000",
          "162905.531000",
          "162908.031000",
          "162910.531000",
          "162913.031000",
          "162915.531000",
          "162918.031000",
          "162920.531000",
          "162923.031000",
          "162925.531000",
          "162928.031000",
          "162930.531000",
          "162933.031000",
          "162935.531000",
          "162938.031000",
          "162940.531000",
          "162943.031000",
          "162945.531000",
          "162948.031000",
          "162950.531000",
          "162953.031000",
          "162955.531000",
          "162958.031000",
          "163000.531000",
          "163003.031000",
          "163005.531000",
          "163008.031000",
          "163010.531000",
          "163013.031000",
          "163015.531000",
          "163018.031000",
          "163020.531000",
          "163023.031000",
          "163025.531000",
          "163028.031000",
          "163030.531000",
          "163033.031000",
          "163035.531000",
          "163038.031000",
          "163040.531000",
          "163043.031000",
          "163045.531000",
          "163048.031000",
          "163050.531000",
          "163053.031000",
          "163055.531000",
          "163058.031000",
          "163100.531000",
          "163103.031000",
          "163105.531000",
          "163108.031000",
          "163110.531000",
          "163113.031000",
          "163115.531000",
          "163118.031000",
          "163120.531000",
          "163123.031000",
          "163125.531000",
          "163128.031000",
          "163130.531000",
          "163133.031000",
          "163135.531000",
          "163138.031000",
          "163140.531000",
          "163143.031000",
          "163145.531000",
          "163148.031000",
          "163150.531000",
          "163153.031000",
          "163155.531000",
          "163158.031000",
          "163200.531000",
          "163203.031000",
          "163205.531000",
          "163208.031000",
          "163210.531000",
          "163213.031000",
          "163215.531000",
          "163218.031000",
          "163220.531000",
          "163223.031000",
          "163225.531000",
          "163228.031000",
          "163230.531000",
          "163233.031000",
          "163235.531000",
          "163238.031000",
          "163240.531000",
          "163243.031000",
          "163245.531000",
          "163248.031000",
          "163250.531000",
          "163253.031000",
          "163255.531000",
          "163258.031000",
          "163300.531000",
          "163303.031000",
          "163305.531000",
          "163308.031000",
          "163310.531000",
          "163313.031000",
          "163315.531000",
          "163318.031000",
          "163320.531000",
          "163323.031000",
          "163325.531000",
          "163328.031000",
          "163330.531000",
          "163333.031000",
          "163335.531000",
          "163338.031000",
          "163340.531000",
          "163343.031000",
          "163345.531000",
          "163348.031000",
          "163350.531000",
          "163353.031000",
          "163355.531000",
          "163358.031000",
          "163400.531000",
          "163403.031000",
          "163405.531000",
          "163408.031000",
          "163410.531000",
          "163413.031000",
          "163415.531000",
          "163418.031000",
          "163420.531000",
          "163423.031000",
          "163425.531000",
          "163428.031000",
          "163430.531000",
          "163433.031000",
          "163435.531000",
          "163438.031000",
          "163440.531000",
          "163443.031000",
          "163445.531000",
          "163447.984000"
        ],
        "InstanceCreationTime": [
          "162800.531000",
          "162803.031000",
          "162805.531000",
          "162808.031000",
          "162810.531000",
          "162813.031000",
          "162815.531000",
          "162818.031000",
          "162820.531000",
          "162823.031000",
          "162825.531000",
          "162828.031000",
          "162830.531000",
          "162833.031000",
          "162835.531000",
          "162838.031000",
          "162840.531000",
          "162843.031000",
          "162845.531000",
          "162848.031000",
          "162850.531000",
          "162853.031000",
          "162855.531000",
          "162858.031000",
          "162900.531000",
          "162903.031000",
          "162905.531000",
          "162908.031000",
          "162910.531000",
          "162913.031000",
          "162915.531000",
          "162918.031000",
          "162920.531000",
          "162923.031000",
          "162925.531000",
          "162928.031000",
          "162930.531000",
          "162933.031000",
          "162935.531000",
          "162938.031000",
          "162940.531000",
          "162943.031000",
          "162945.531000",
          "162948.031000",
          "162950.531000",
          "162953.031000",
          "162955.531000",
          "162958.031000",
          "163000.531000",
          "163003.031000",
          "163005.531000",
          "163008.031000",
          "163010.531000",
          "163013.031000",
          "163015.531000",
          "163018.031000",
          "163020.531000",
          "163023.031000",
          "163025.531000",
          "163028.031000",
          "163030.531000",
          "163033.031000",
          "163035.531000",
          "163038.031000",
          "163040.531000",
          "163043.031000",
          "163045.531000",
          "163048.031000",
          "163050.531000",
          "163053.031000",
          "163055.531000",
          "163058.031000",
          "163100.531000",
          "163103.031000",
          "163105.531000",
          "163108.031000",
          "163110.531000",
          "163113.031000",
          "163115.531000",
          "163118.031000",
          "163120.531000",
          "163123.031000",
          "163125.531000",
          "163128.031000",
          "163130.531000",
          "163133.031000",
          "163135.531000",
          "163138.031000",
          "163140.531000",
          "163143.031000",
          "163145.531000",
          "163148.031000",
          "163150.531000",
          "163153.031000",
          "163155.531000",
          "163158.031000",
          "163200.531000",
          "163203.031000",
          "163205.531000",
          "163208.031000",
          "163210.531000",
          "163213.031000",
          "163215.531000",
          "163218.031000",
          "163220.531000",
          "163223.031000",
          "163225.531000",
          "163228.031000",
          "163230.531000",
          "163233.031000",
          "163235.531000",
          "163238.031000",
          "163240.531000",
          "163243.031000",
          "163245.531000",
          "163248.031000",
          "163250.531000",
          "163253.031000",
          "163255.531000",
          "163258.031000",
          "163300.531000",
          "163303.031000",
          "163305.531000",
          "163308.031000",
          "163310.531000",
          "163313.031000",
          "163315.531000",
          "163318.031000",
          "163320.531000",
          "163323.031000",
          "163325.531000",
          "163328.031000",
          "163330.531000",
          "163333.031000",
          "163335.531000",
          "163338.031000",
          "163340.531000",
          "163343.031000",
          "163345.531000",
          "163348.031000",
          "163350.531000",
          "163353.031000",
          "163355.531000",
          "163358.031000",
          "163400.531000",
          "163403.031000",
          "163405.531000",
          "163408.031000",
          "163410.531000",
          "163413.031000",
          "163415.531000",
          "163418.031000",
          "163420.531000",
          "163423.031000",
          "163425.531000",
          "163428.031000",
          "163430.531000",
          "163433.031000",
          "163435.531000",
          "163438.031000",
          "163440.531000",
          "163443.031000",
          "163445.531000",
          "163447.984000"
        ],
        "InstanceNumber": [
          1,
          2,
          3,
          4,
          5,
          6,
          7,
          8,
          9,
          10,
          11,
          12,
          13,
          14,
          15,
          16,
          17,
          18,
          19,
          20,
          21,
          22,
          23,
          24,
          25,
          26,
          27,
          28,
          29,
          30,
          31,
          32,
          33,
          34,
          35,
          36,
          37,
          38,
          39,
          40,
          41,
          42,
          43,
          44,
          45,
          46,
          47,
          48,
          49,
          50,
          51,
          52,
          53,
          54,
          55,
          56,
          57,
          58,
          59,
          60,
          61,
          62,
          63,
          64,
          65,
          66,
          67,
          68,
          69,
          70,
          71,
          72,
          73,
          74,
          75,
          76,
          77,
          78,
          79,
          80,
          81,
          82,
          83,
          84,
          85,
          86,
          87,
          88,
          89,
          90,
          91,
          92,
          93,
          94,
          95,
          96,
          97,
          98,
          99,
          100,
          101,
          102,
          103,
          104,
          105,
          106,
          107,
          108,
          109,
          110,
          111,
          112,
          113,
          114,
          115,
          116,
          117,
          118,
          119,
          120,
          121,
          122,
          123,
          124,
          125,
          126,
          127,
          128,
          129,
          130,
          131,
          132,
          133,
          134,
          135,
          136,
          137,
          138,
          139,
          140,
          141,
          142,
          143,
          144,
          145,
          146,
          147,
          148,
          149,
          150,
          151,
          152,
          153,
          154,
          155,
          156,
          157,
          158,
          159,
          160,
          161,
          162,
          163,
          164
        ],
        "LargestImagePixelValue": [
          1827,
          1851,
          1842,
          1589,
          1741,
          1703,
          1680,
          1781,
          1665,
          2046,
          1977,
          1810,
          1847,
          1801,
          1705,
          1874,
          2049,
          1860,
          1763,
          1791,
          1787,
          1623,
          1917,
          1783,
          1616,
          1708,
          1737,
          1680,
          1848,
          2045,
          1871,
          1760,
          1802,
          1814,
          1852,
          1833,
          1730,
          1671,
          1639,
          1569,
          1699,
          1791,
          1843,
          1735,
          1614,
          1701,
          1931,
          2105,
          2069,
          1945,
          1881,
          1902,
          1952,
          1846,
          1924,
          2112,
          2041,
          1774,
          1744,
          1815,
          1719,
          1804,
          1659,
          1859,
          2051,
          1806,
          1778,
          1850,
          1766,
          1811,
          1806,
          1883,
          1722,
          1646,
          1857,
          1964,
          1989,
          1944,
          1826,
          1780,
          1979,
          2068,
          1898,
          1754,
          1930,
          1936,
          1898,
          2122,
          1893,
          1737,
          1640,
          1674,
          1658,
          1815,
          1869,
          1944,
          1916,
          1715,
          1827,
          2049,
          1890,
          1664,
          1944,
          2018,
          1764,
          1627,
          1506,
          1636,
          1810,
          1878,
          2051,
          2092,
          1967,
          1906,
          1853,
          1927,
          2188,
          2050,
          1858,
          1745,
          1685,
          1903,
          1727,
          1587,
          1507,
          1869,
          2054,
          1784,
          1739,
          1626,
          1719,
          2172,
          1943,
          1797,
          1798,
          1875,
          1802,
          1590,
          1612,
          1738,
          1862,
          1773,
          1550,
          1593,
          1667,
          1556,
          1525,
          1588,
          1662,
          1858,
          1722,
          1558,
          1535,
          1652,
          1781,
          1950,
          1742,
          1831,
          1858,
          1742,
          1554,
          1606,
          1637,
          1783
        ],
        "WindowCenter": [
          680.0,
          680.0,
          681.0,
          681.0,
          681.0,
          682.0,
          684.0,
          683.0,
          684.0,
          682.0,
          682.0,
          681.0,
          683.0,
          683.0,
          682.0,
          681.0,
          683.0,
          679.0,
          681.0,
          682.0,
          679.0,
          681.0,
          681.0,
          681.0,
          680.0,
          681.0,
          682.0,
          681.0,
          682.0,
          682.0,
          681.0,
          683.0,
          681.0,
          682.0,
          682.0,
          681.0,
          681.0,
          681.0,
          682.0,
          681.0,
          681.0,
          682.0,
          683.0,
          680.0,
          681.0,
          682.0,
          683.0,
          682.0,
          682.0,
          683.0,
          681.0,
          682.0,
          682.0,
          683.0,
          681.0,
          682.0,
          683.0,
          681.0,
          682.0,
          681.0,
          681.0,
          681.0,
          682.0,
          681.0,
          682.0,
          681.0,
          682.0,
          683.0,
          682.0,
          681.0,
          680.0,
          684.0,
          683.0,
          682.0,
          682.0,
          682.0,
          681.0,
          681.0,
          681.0,
          681.0,
          681.0,
          682.0,
          681.0,
          681.0,
          680.0,
          683.0,
          684.0,
          682.0,
          682.0,
          682.0,
          681.0,
          680.0,
          680.0,
          682.0,
          681.0,
          681.0,
          681.0,
          682.0,
          683.0,
          684.0,
          682.0,
          681.0,
          683.0,
          683.0,
          682.0,
          679.0,
          681.0,
          681.0,
          681.0,
          681.0,
          680.0,
          682.0,
          682.0,
          682.0,
          682.0,
          683.0,
          683.0,
          683.0,
          681.0,
          680.0,
          681.0,
          681.0,
          680.0,
          680.0,
          680.0,
          681.0,
          682.0,
          683.0,
          682.0,
          680.0,
          681.0,
          681.0,
          683.0,
          683.0,
          680.0,
          681.0,
          681.0,
          681.0,
          680.0,
          683.0,
          682.0,
          682.0,
          681.0,
          681.0,
          683.0,
          683.0,
          681.0,
          680.0,
