{
  "aor": 0.04584871951219513,
  "aqi": 0.025858306097560974,
  "bids_meta": {
    "AcquisitionMatrixPE": 64,
    "AcquisitionNumber": 1,
    "AcquisitionTime": "14:35:38.757500",
    "BandwidthPerPixelPhaseEncode": 26.483,
    "BaseResolution": 64,
    "BodyPartExamined": "HEAD",
    "CogAtlasID": "TODO",
    "ConversionSoftware": "dcm2niix",
    "ConversionSoftwareVersion": "v1.0.20171017 GCC6.3.0",
    "DerivedVendorReportedEchoSpacing": 0.000590001,
    "DeviceSerialNumber": "35177",
    "DwellTime": 4.1e-06,
    "EchoTime": 0.027,
    "EffectiveEchoSpacing": 0.000590001,
    "FlipAngle": 90,
    "ImageOrientationPatientDICOM": [
      0.999416,
      -0.0341636,
      0.0010837,
      0.0317575,
      0.939817,
      0.340198
    ],
    "ImageType": [
      "ORIGINAL",
      "PRIMARY",
      "M",
      "ND",
      "NORM",
      "MOSAIC"
    ],
    "InPlanePhaseEncodingDirectionDICOM": "COL",
    "InstitutionAddress": "Scott_Ave._4525_St._Louis_MO_US_63110",
    "InstitutionName": "Washington_University",
    "InstitutionalDepartmentName": "Department",
    "MRAcquisitionType": "2D",
    "MagneticFieldStrength": 3,
    "Manufacturer": "Siemens",
    "ManufacturersModelName": "TrioTim",
    "Modality": "MR",
    "PartialFourier": 1,
    "PatientPosition": "HFS",
    "PercentPhaseFOV": 100,
    "PhaseEncodingDirection": "j-",
    "PhaseEncodingSteps": 64,
    "PhaseResolution": 1,
    "PixelBandwidth": 1905,
    "ProcedureStepDescription": "head_GREENE",
    "ProtocolName": "ep2d_bold_ad_rest",
    "PulseSequenceDetails": "%SiemensSeq%_ep2d_bold",
    "ReceiveCoilName": "HeadMatrix",
    "ReconMatrixPE": 64,
    "RepetitionTime": 2.5,
    "SAR": 0.139451,
    "ScanOptions": "FS",
    "ScanningSequence": "EP",
    "SequenceName": "_epfid2d1_64",
    "SequenceVariant": "SK",
    "SeriesDescription": "ep2d_bold_ad_rest",
    "SeriesNumber": 9,
    "ShimSetting": [
      -231,
      -19678,
      7947,
      183,
      42,
      -480,
      420,
      123
    ],
    "SliceThickness": 4,
    "SliceTiming": [
      1.255,
      0,
      1.335,
      0.08,
      1.4125,
      0.1575,
      1.49,
      0.2375,
      1.57,
      0.315,
      1.6475,
      0.3925,
      1.7275,
      0.4725,
      1.805,
      0.55,
      1.8825,
      0.6275,
      1.9625,
      0.7075,
      2.04,
      0.785,
      2.1175,
      0.8625,
      2.1975,
      0.9425,
      2.275,
      1.02,
      2.3525,
      1.1,
      2.4325,
      1.1775
    ],
    "SoftwareVersions": "syngo_MR_B17",
    "SpacingBetweenSlices": 4,
    "StationName": "MRC35177",
    "TaskName": "restfixationadaptive",
    "TotalReadoutTime": 0.0371701,
    "TxRefAmp": 349.43,
    "dataset": "ds000256",
    "dcmmeta_affine": [
      [
        -3.9976625442504883,
        0.12702980637550354,
        0.05056348815560341,
        130.59381103515625
      ],
      [
        0.13665448129177094,
        3.759269952774048,
        1.3598582744598389,
        -142.88766479492188
      ],
      [
        0.004334815312176943,
        -1.3607913255691528,
        3.7614126205444336,
        27.599658966064453
      ],
      [
        0.0,
        0.0,
        0.0,
        1.0
      ]
    ],
    "dcmmeta_reorient_transform": [
      [
        0.0,
        -1.0,
        0.0,
        63.0
      ],
      [
        1.0,
        0.0,
        0.0,
        0.0
      ],
      [
        0.0,
        0.0,
        1.0,
        0.0
      ],
      [
        0.0,
        0.0,
        0.0,
        1.0
      ]
    ],
    "dcmmeta_shape": [
      64,
      64,
      32,
      164
    ],
    "dcmmeta_slice_dim": 2,
    "dcmmeta_version": 0.6,
    "global": {
      "const": {
        "AccessionNumber": ".",
        "AcquisitionMatrix": [
          64,
          0,
          0,
          64
        ],
        "AngioFlag": "N",
        "BitsAllocated": 16,
        "BitsStored": 12,
        "BodyPartExamined": "HEAD",
        "Columns": 384,
        "DeidentificationMethodCodeSequence": [
          {
            "CodeMeaning": "XNAT Edit Script",
            "CodeValue": "625500",
            "CodingSchemeDesignator": "XNAT",
            "CodingSchemeVersion": "0.1"
          }
        ],
        "EchoNumbers": 1,
        "EchoTime": 27.0,
        "EchoTrainLength": 1,
        "FlipAngle": 90.0,
        "HighBit": 11,
        "ImageOrientationPatient": [
          0.99941566554651,
          -0.0341636216802,
          0.00108370380149,
          0.03175745220294,
          0.93981748225772,
          0.34019783108117
        ],
        "ImagePositionPatient": [
          -798.54747985272,
          -673.56481659592,
          -276.55037624532
        ],
        "ImageType": [
          "ORIGINAL",
          "PRIMARY",
          "M",
          "ND",
          "NORM",
          "MOSAIC"
        ],
        "ImagedNucleus": "1H",
        "ImagingFrequency": 123.255889,
        "InPlanePhaseEncodingDirection": "COL",
        "MRAcquisitionType": "2D",
        "MagneticFieldStrength": 3.0,
        "Manufacturer": "SIEMENS",
        "ManufacturerModelName": "TrioTim",
        "Modality": "MR",
        "NumberOfAverages": 1.0,
        "NumberOfPhaseEncodingSteps": 64,
        "PercentPhaseFieldOfView": 100.0,
        "PercentSampling": 100.0,
        "PerformedProcedureStepStartTime": "135658.187000",
        "PhotometricInterpretation": "MONOCHROME2",
        "PixelBandwidth": 1905.0,
        "PixelRepresentation": 0,
        "PixelSpacing": [
          4.0,
          4.0
        ],
        "PositionReferenceIndicator": "",
        "ProtocolName": "ep2d_bold_ad_rest",
        "RepetitionTime": 2500.0,
        "Rows": 384,
        "SAR": 0.13945054244287,
        "SamplesPerPixel": 1,
        "ScanOptions": "FS",
        "ScanningSequence": "EP",
        "SequenceName": "*epfid2d1_64",
        "SequenceVariant": "SK",
        "SeriesDescription": "ep2d_bold_ad_rest",
        "SeriesNumber": 9,
        "SeriesTime": "143540.437000",
        "SliceLocation": -20.972500069845,
        "SliceThickness": 4.0,
        "SmallestImagePixelValue": 0,
        "SoftwareVersions": "syngo MR B17",
        "SpacingBetweenSlices": 3.999999431967,
        "SpecificCharacterSet": "ISO_IR 100",
        "StudyID": "1",
        "StudyTime": "135658.140000",
        "TransmitCoilName": "Body",
        "VariableFlipAngleFlag": "N",
        "WindowCenterWidthExplanation": "Algo1",
        "dBdt": 0.0
      },
      "slices": {}
    },
    "modality": "bold",
    "subject_id": "CTS211",
    "task_id": "restfixationadaptive",
    "time": {
      "samples": {
        "AcquisitionNumber": [
          1,
          2,
          3,
          4,
          5,
          6,
          7,
          8,
          9,
          10,
          11,
          12,
          13,
          14,
          15,
          16,
          17,
          18,
          19,
          20,
          21,
          22,
          23,
          24,
          25,
          26,
          27,
          28,
          29,
          30,
          31,
          32,
          33,
          34,
          35,
          36,
          37,
          38,
          39,
          40,
          41,
          42,
          43,
          44,
          45,
          46,
          47,
          48,
          49,
          50,
          51,
          52,
          53,
          54,
          55,
          56,
          57,
          58,
          59,
          60,
          61,
          62,
          63,
          64,
          65,
          66,
          67,
          68,
          69,
          70,
          71,
          72,
          73,
          74,
          75,
          76,
          77,
          78,
          79,
          80,
          81,
          82,
          83,
          84,
          85,
          86,
          87,
          88,
          89,
          90,
          91,
          92,
          93,
          94,
          95,
          96,
          97,
          98,
          99,
          100,
          101,
          102,
          103,
          104,
          105,
          106,
          107,
          108,
          109,
          110,
          111,
          112,
          113,
          114,
          115,
          116,
          117,
          118,
          119,
          120,
          121,
          122,
          123,
          124,
          125,
          126,
          127,
          128,
          129,
          130,
          131,
          132,
          133,
          134,
          135,
          136,
          137,
          138,
          139,
          140,
          141,
          142,
          143,
          144,
          145,
          146,
          147,
          148,
          149,
          150,
          151,
          152,
          153,
          154,
          155,
          156,
          157,
          158,
          159,
          160,
          161,
          162,
          163,
          164
        ],
        "AcquisitionTime": [
          "143538.757500",
          "143541.267500",
          "143543.777500",
          "143546.287500",
          "143548.797500",
          "143551.307500",
          "143553.817500",
          "143556.327500",
          "143558.837500",
          "143601.347500",
          "143603.857500",
          "143606.367500",
          "143608.880000",
          "143611.390000",
          "143613.900000",
          "143616.410000",
          "143618.920000",
          "143621.430000",
          "143623.940000",
          "143626.450000",
          "143628.960000",
          "143631.470000",
          "143633.980000",
          "143636.490000",
          "143639.000000",
          "143641.510000",
          "143644.020000",
          "143646.530000",
          "143649.040000",
          "143651.550000",
          "143654.060000",
          "143656.570000",
          "143659.080000",
          "143701.590000",
          "143704.100000",
          "143706.610000",
          "143709.120000",
          "143711.630000",
          "143714.140000",
          "143716.650000",
          "143719.160000",
          "143721.670000",
          "143724.180000",
          "143726.690000",
          "143729.200000",
          "143731.710000",
          "143734.220000",
          "143736.730000",
          "143739.240000",
          "143741.750000",
          "143744.260000",
          "143746.770000",
          "143749.280000",
          "143751.790000",
          "143754.300000",
          "143756.810000",
          "143759.320000",
          "143801.830000",
          "143804.340000",
          "143806.850000",
          "143809.360000",
          "143811.870000",
          "143814.380000",
          "143816.890000",
          "143819.400000",
          "143821.910000",
          "143824.420000",
          "143826.930000",
          "143829.440000",
          "143831.950000",
          "143834.460000",
          "143836.970000",
          "143839.480000",
          "143841.990000",
          "143844.502500",
          "143847.012500",
          "143849.522500",
          "143852.032500",
          "143854.542500",
          "143857.052500",
          "143859.562500",
          "143902.072500",
          "143904.582500",
          "143907.092500",
          "143909.602500",
          "143912.112500",
          "143914.622500",
          "143917.132500",
          "143919.642500",
          "143922.152500",
          "143924.662500",
          "143927.172500",
          "143929.682500",
          "143932.192500",
          "143934.702500",
          "143937.212500",
          "143939.722500",
          "143942.232500",
          "143944.742500",
          "143947.252500",
          "143949.762500",
          "143952.272500",
          "143954.782500",
          "143957.292500",
          "143959.802500",
          "144002.312500",
          "144004.822500",
          "144007.332500",
          "144009.842500",
          "144012.352500",
          "144014.862500",
          "144017.372500",
          "144019.882500",
          "144022.392500",
          "144024.902500",
          "144027.412500",
          "144029.922500",
          "144032.432500",
          "144034.942500",
          "144037.452500",
          "144039.962500",
          "144042.472500",
          "144044.982500",
          "144047.492500",
          "144050.002500",
          "144052.512500",
          "144055.022500",
          "144057.532500",
          "144100.042500",
          "144102.552500",
          "144105.062500",
          "144107.572500",
          "144110.082500",
          "144112.592500",
          "144115.102500",
          "144117.612500",
          "144120.122500",
          "144122.635000",
          "144125.145000",
          "144127.655000",
          "144130.165000",
          "144132.675000",
          "144135.185000",
          "144137.695000",
          "144140.205000",
          "144142.715000",
          "144145.225000",
          "144147.735000",
          "144150.245000",
          "144152.755000",
          "144155.265000",
          "144157.775000",
          "144200.285000",
          "144202.795000",
          "144205.305000",
          "144207.815000",
          "144210.325000",
          "144212.835000",
          "144215.345000",
          "144217.855000",
          "144220.365000",
          "144222.875000",
          "144225.385000",
          "144227.895000"
        ],
        "ContentTime": [
          "143540.437000",
          "143542.937000",
          "143545.437000",
          "143547.937000",
          "143550.437000",
          "143552.937000",
          "143555.437000",
          "143557.937000",
          "143600.437000",
          "143602.937000",
          "143605.437000",
          "143607.937000",
          "143610.437000",
          "143612.937000",
          "143615.437000",
          "143617.937000",
          "143620.437000",
          "143622.937000",
          "143625.437000",
          "143627.937000",
          "143630.437000",
          "143632.937000",
          "143635.437000",
          "143637.937000",
          "143640.437000",
          "143642.937000",
          "143645.437000",
          "143647.937000",
          "143650.437000",
          "143652.937000",
          "143655.437000",
          "143657.937000",
          "143700.437000",
          "143702.937000",
          "143705.437000",
          "143707.937000",
          "143710.437000",
          "143712.937000",
          "143715.437000",
          "143717.937000",
          "143720.437000",
          "143722.937000",
          "143725.437000",
          "143727.937000",
          "143730.437000",
          "143732.937000",
          "143735.437000",
          "143737.937000",
          "143740.437000",
          "143742.937000",
          "143745.437000",
          "143747.937000",
          "143750.437000",
          "143752.937000",
          "143755.437000",
          "143757.937000",
          "143800.437000",
          "143802.937000",
          "143805.437000",
          "143807.937000",
          "143810.437000",
          "143812.937000",
          "143815.437000",
          "143817.937000",
          "143820.437000",
          "143822.937000",
          "143825.437000",
          "143827.937000",
          "143830.437000",
          "143832.937000",
          "143835.437000",
          "143837.937000",
          "143840.437000",
          "143842.937000",
          "143845.437000",
          "143847.937000",
          "143850.437000",
          "143852.937000",
          "143855.437000",
          "143857.937000",
          "143900.437000",
          "143902.937000",
          "143905.437000",
          "143907.937000",
          "143910.437000",
          "143912.937000",
          "143915.437000",
          "143917.937000",
          "143920.437000",
          "143922.937000",
          "143925.437000",
          "143927.937000",
          "143930.437000",
          "143932.937000",
          "143935.437000",
          "143937.937000",
          "143940.437000",
          "143942.937000",
          "143945.437000",
          "143947.937000",
          "143950.437000",
          "143952.937000",
          "143955.437000",
          "143957.937000",
          "144000.437000",
          "144002.937000",
          "144005.437000",
          "144007.937000",
          "144010.437000",
          "144012.937000",
          "144015.437000",
          "144017.937000",
          "144020.437000",
          "144022.937000",
          "144025.437000",
          "144027.937000",
          "144030.437000",
          "144032.937000",
          "144035.437000",
          "144037.937000",
          "144040.437000",
          "144042.937000",
          "144045.437000",
          "144047.937000",
          "144050.437000",
          "144052.937000",
          "144055.437000",
          "144057.937000",
          "144100.437000",
          "144102.937000",
          "144105.437000",
          "144107.937000",
          "144110.437000",
          "144112.937000",
          "144115.437000",
          "144117.937000",
          "144120.437000",
          "144122.937000",
          "144125.437000",
          "144127.937000",
          "144130.437000",
          "144132.937000",
          "144135.437000",
          "144137.937000",
          "144140.437000",
          "144142.937000",
          "144145.437000",
          "144147.937000",
          "144150.437000",
          "144152.937000",
          "144155.437000",
          "144157.937000",
          "144200.437000",
          "144202.937000",
          "144205.437000",
          "144207.937000",
          "144210.437000",
          "144212.937000",
          "144215.437000",
          "144217.937000",
          "144220.437000",
          "144222.937000",
          "144225.437000",
          "144227.890000"
        ],
        "InstanceCreationTime": [
          "143540.437000",
          "143542.937000",
          "143545.437000",
          "143547.937000",
          "143550.437000",
          "143552.937000",
          "143555.437000",
          "143557.937000",
          "143600.437000",
          "143602.937000",
          "143605.437000",
          "143607.937000",
          "143610.437000",
          "143612.937000",
          "143615.437000",
          "143617.937000",
          "143620.437000",
          "143622.937000",
          "143625.437000",
          "143627.937000",
          "143630.437000",
          "143632.937000",
          "143635.437000",
          "143637.937000",
          "143640.437000",
          "143642.937000",
          "143645.437000",
          "143647.937000",
          "143650.437000",
          "143652.937000",
          "143655.437000",
          "143657.937000",
          "143700.437000",
          "143702.937000",
          "143705.437000",
          "143707.937000",
          "143710.437000",
          "143712.937000",
          "143715.437000",
          "143717.937000",
          "143720.437000",
          "143722.937000",
          "143725.437000",
          "143727.937000",
          "143730.437000",
          "143732.937000",
          "143735.437000",
          "143737.937000",
          "143740.437000",
          "143742.937000",
          "143745.437000",
          "143747.937000",
          "143750.437000",
          "143752.937000",
          "143755.437000",
          "143757.937000",
          "143800.437000",
          "143802.937000",
          "143805.437000",
          "143807.937000",
          "143810.437000",
          "143812.937000",
          "143815.437000",
          "143817.937000",
          "143820.437000",
          "143822.937000",
          "143825.437000",
          "143827.937000",
          "143830.437000",
          "143832.937000",
          "143835.437000",
          "143837.937000",
          "143840.437000",
          "143842.937000",
          "143845.437000",
          "143847.937000",
          "143850.437000",
          "143852.937000",
          "143855.437000",
          "143857.937000",
          "143900.437000",
          "143902.937000",
          "143905.437000",
          "143907.937000",
          "143910.437000",
          "143912.937000",
          "143915.437000",
          "143917.937000",
          "143920.437000",
          "143922.937000",
          "143925.437000",
          "143927.937000",
          "143930.437000",
          "143932.937000",
          "143935.437000",
          "143937.937000",
          "143940.437000",
          "143942.937000",
          "143945.437000",
          "143947.937000",
          "143950.437000",
          "143952.937000",
          "143955.437000",
          "143957.937000",
          "144000.437000",
          "144002.937000",
          "144005.437000",
          "144007.937000",
          "144010.437000",
          "144012.937000",
          "144015.437000",
          "144017.937000",
          "144020.437000",
          "144022.937000",
          "144025.437000",
          "144027.937000",
          "144030.437000",
          "144032.937000",
          "144035.437000",
          "144037.937000",
          "144040.437000",
          "144042.937000",
          "144045.437000",
          "144047.937000",
          "144050.437000",
          "144052.937000",
          "144055.437000",
          "144057.937000",
          "144100.437000",
          "144102.937000",
          "144105.437000",
          "144107.937000",
          "144110.437000",
          "144112.937000",
          "144115.437000",
          "144117.937000",
          "144120.437000",
          "144122.937000",
          "144125.437000",
          "144127.937000",
          "144130.437000",
          "144132.937000",
          "144135.437000",
          "144137.937000",
          "144140.437000",
          "144142.937000",
          "144145.437000",
          "144147.937000",
          "144150.437000",
          "144152.937000",
          "144155.437000",
          "144157.937000",
          "144200.437000",
          "144202.937000",
          "144205.437000",
          "144207.937000",
          "144210.437000",
          "144212.937000",
          "144215.437000",
          "144217.937000",
          "144220.437000",
          "144222.937000",
          "144225.437000",
          "144227.890000"
        ],
        "InstanceNumber": [
          1,
          2,
          3,
          4,
          5,
          6,
          7,
          8,
          9,
          10,
          11,
          12,
          13,
          14,
          15,
          16,
          17,
          18,
          19,
          20,
          21,
          22,
          23,
          24,
          25,
          26,
          27,
          28,
          29,
          30,
          31,
          32,
          33,
          34,
          35,
          36,
          37,
          38,
          39,
          40,
          41,
          42,
          43,
          44,
          45,
          46,
          47,
          48,
          49,
          50,
          51,
          52,
          53,
          54,
          55,
          56,
          57,
          58,
          59,
          60,
          61,
          62,
          63,
          64,
          65,
          66,
          67,
          68,
          69,
          70,
          71,
          72,
          73,
          74,
          75,
          76,
          77,
          78,
          79,
          80,
          81,
          82,
          83,
          84,
          85,
          86,
          87,
          88,
          89,
          90,
          91,
          92,
          93,
          94,
          95,
          96,
          97,
          98,
          99,
          100,
          101,
          102,
          103,
          104,
          105,
          106,
          107,
          108,
          109,
          110,
          111,
          112,
          113,
          114,
          115,
          116,
          117,
          118,
          119,
          120,
          121,
          122,
          123,
          124,
          125,
          126,
          127,
          128,
          129,
          130,
          131,
          132,
          133,
          134,
          135,
          136,
          137,
          138,
          139,
          140,
          141,
          142,
          143,
          144,
          145,
          146,
          147,
          148,
          149,
          150,
          151,
          152,
          153,
          154,
          155,
          156,
          157,
          158,
          159,
          160,
          161,
          162,
          163,
          164
        ],
        "LargestImagePixelValue": [
          1510,
          1495,
          1411,
          1622,
          1452,
          1353,
          1504,
          1620,
          1403,
          1440,
          1353,
          1409,
          1715,
          1654,
          1347,
          1368,
          1274,
          1364,
          1645,
          1381,
          1504,
          1312,
          1351,
          1347,
          1360,
          1269,
          1540,
          1631,
          1563,
          1677,
          1358,
          1633,
          1661,
          1716,
          1439,
          1734,
          1436,
          1365,
          1355,
          1387,
          1344,
          1359,
          1330,
          1374,
          1387,
          1347,
          1393,
          1368,
          1385,
          1409,
          1433,
          1450,
          1617,
          1645,
          1401,
          1410,
          1506,
          1426,
          1612,
          1404,
          1334,
          1373,
          1353,
          1379,
          1434,
          1441,
          1387,
          1388,
          1419,
          1358,
          1403,
          1405,
          1398,
          1417,
          1378,
          1448,
          1388,
          1365,
          1379,
          1420,
          1417,
          1393,
          1416,
          1364,
          1369,
          1425,
          1402,
          1412,
          1424,
          1373,
          1545,
          1423,
          1399,
          1334,
          1341,
          1621,
          1340,
          1321,
          1341,
          1377,
          1354,
          1371,
          1337,
          1318,
          1426,
          1379,
          1326,
          1365,
          1242,
          1503,
          1357,
          1416,
          1326,
          1337,
          1349,
          1349,
          1352,
          1363,
          1346,
          1361,
          1381,
          1379,
          1336,
          1379,
          1387,
          1327,
          1324,
          1333,
          1344,
          1355,
          1312,
          1409,
          1361,
          1363,
          1349,
          1318,
          1332,
          1326,
          1320,
          1373,
          1344,
          1379,
          1334,
          1330,
          1375,
          1320,
          1409,
          1338,
          1344,
          1373,
          1343,
          1324,
          1370,
          1335,
          1337,
          1357,
          1316,
          1380,
          1361,
          1386,
          1383,
          1323,
          1383,
          1336
        ],
        "WindowCenter": [
          626.0,
          627.0,
          629.0,
          627.0,
          627.0,
          627.0,
          626.0,
          625.0,
          626.0,
          626.0,
          608.0,
          632.0,
          625.0,
          625.0,
          614.0,
          623.0,
          619.0,
          623.0,
          626.0,
          621.0,
          622.0,
          623.0,
          624.0,
          625.0,
          626.0,
          619.0,
          623.0,
          627.0,
          624.0,
          622.0,
          625.0,
          612.0,
          626.0,
          623.0,
          600.0,
          605.0,
          620.0,
          618.0,
          616.0,
          619.0,
          620.0,
          620.0,
          626.0,
          625.0,
          624.0,
          625.0,
          625.0,
          620.0,
          625.0,
          622.0,
          626.0,
          624.0,
          625.0,
          619.0,
          624.0,
          621.0,
          624.0,
          596.0,
          630.0,
          622.0,
          622.0,
          623.0,
          624.0,
          624.0,
          624.0,
          621.0,
          620.0,
          624.0,
          621.0,
          625.0,
          625.0,
          624.0,
          625.0,
          626.0,
          624.0,
          624.0,
          625.0,
          626.0,
          625.0,
          625.0,
          625.0,
          625.0,
          624.0,
          621.0,
          625.0,
          625.0,
          626.0,
          626.0,
          625.0,
          626.0,
          624.0,
          623.0,
          625.0,
          619.0,
          619.0,
          623.0,
          619.0,
          616.0,
          616.0,
          616.0,
          618.0,
          623.0,
          620.0,
          623.0,
          619.0,
          619.0,
          620.0,
          619.0,
          602.0,
          616.0,
          623.0,
          623.0,
          623.0,
          618.0,
          624.0,
          625.0,
          621.0,
          626.0,
          625.0,
          626.0,
          626.0,
          625.0,
          622.0,
          624.0,
          623.0,
          624.0,
          624.0,
          623.0,
          624.0,
          625.0,
          624.0,
          623.0,
          623.0,
          623.0,
          624.0,
          624.0,
          623.0,
          625.0,
          624.0,
          625.0,
          622.0,
          627.0,
          626.0,
          620.0,
          621.0,
          625.0,
          625.0,
          624.0,
          625.0,
          625.0,
