{
  "aor": 0.005119817073170731,
  "aqi": 0.0047171328048780485,
  "bids_meta": {
    "AcquisitionMatrixPE": 64,
    "AcquisitionNumber": 1,
    "AcquisitionTime": "14:10:13.532500",
    "BandwidthPerPixelPhaseEncode": 26.483,
    "BaseResolution": 64,
    "BodyPartExamined": "HEAD",
    "CogAtlasID": "TODO",
    "ConversionSoftware": "dcm2niix",
    "ConversionSoftwareVersion": "v1.0.20171017 GCC6.3.0",
    "DerivedVendorReportedEchoSpacing": 0.000590001,
    "DeviceSerialNumber": "35177",
    "DwellTime": 4.1e-06,
    "EchoTime": 0.027,
    "EffectiveEchoSpacing": 0.000590001,
    "FlipAngle": 90,
    "ImageOrientationPatientDICOM": [
      0.999416,
      -0.0341636,
      0.0010837,
      0.0317575,
      0.939817,
      0.340198
    ],
    "ImageType": [
      "ORIGINAL",
      "PRIMARY",
      "M",
      "ND",
      "NORM",
      "MOSAIC"
    ],
    "InPlanePhaseEncodingDirectionDICOM": "COL",
    "InstitutionAddress": "Scott_Ave._4525_St._Louis_MO_US_63110",
    "InstitutionName": "Washington_University",
    "InstitutionalDepartmentName": "Department",
    "MRAcquisitionType": "2D",
    "MagneticFieldStrength": 3,
    "Manufacturer": "Siemens",
    "ManufacturersModelName": "TrioTim",
    "Modality": "MR",
    "PartialFourier": 1,
    "PatientPosition": "HFS",
    "PercentPhaseFOV": 100,
    "PhaseEncodingDirection": "j-",
    "PhaseEncodingSteps": 64,
    "PhaseResolution": 1,
    "PixelBandwidth": 1905,
    "ProcedureStepDescription": "head_GREENE",
    "ProtocolName": "ep2d_bold_rest1",
    "PulseSequenceDetails": "%SiemensSeq%_ep2d_bold",
    "ReceiveCoilName": "HeadMatrix",
    "ReconMatrixPE": 64,
    "RepetitionTime": 2.5,
    "SAR": 0.139451,
    "ScanOptions": "FS",
    "ScanningSequence": "EP",
    "SequenceName": "_epfid2d1_64",
    "SequenceVariant": "SK",
    "SeriesDescription": "ep2d_bold_rest1",
    "SeriesNumber": 6,
    "ShimSetting": [
      -231,
      -19678,
      7947,
      183,
      42,
      -480,
      420,
      123
    ],
    "SliceThickness": 4,
    "SliceTiming": [
      1.255,
      0,
      1.335,
      0.08,
      1.4125,
      0.1575,
      1.49,
      0.235,
      1.57,
      0.315,
      1.6475,
      0.3925,
      1.725,
      0.47,
      1.805,
      0.55,
      1.8825,
      0.6275,
      1.96,
      0.7075,
      2.04,
      0.785,
      2.1175,
      0.8625,
      2.1975,
      0.9425,
      2.275,
      1.02,
      2.3525,
      1.0975,
      2.4325,
      1.1775
    ],
    "SoftwareVersions": "syngo_MR_B17",
    "SpacingBetweenSlices": 4,
    "StationName": "MRC35177",
    "TaskName": "restbaseline",
    "TotalReadoutTime": 0.0371701,
    "TxRefAmp": 349.43,
    "dataset": "ds000256",
    "dcmmeta_affine": [
      [
        -3.9976625442504883,
        0.12702980637550354,
        0.05056348815560341,
        130.59381103515625
      ],
      [
        0.13665448129177094,
        3.759269952774048,
        1.3598582744598389,
        -142.88766479492188
      ],
      [
        0.004334815312176943,
        -1.3607913255691528,
        3.7614126205444336,
        27.599658966064453
      ],
      [
        0.0,
        0.0,
        0.0,
        1.0
      ]
    ],
    "dcmmeta_reorient_transform": [
      [
        0.0,
        -1.0,
        0.0,
        63.0
      ],
      [
        1.0,
        0.0,
        0.0,
        0.0
      ],
      [
        0.0,
        0.0,
        1.0,
        0.0
      ],
      [
        0.0,
        0.0,
        0.0,
        1.0
      ]
    ],
    "dcmmeta_shape": [
      64,
      64,
      32,
      164
    ],
    "dcmmeta_slice_dim": 2,
    "dcmmeta_version": 0.6,
    "global": {
      "const": {
        "AccessionNumber": ".",
        "AcquisitionMatrix": [
          64,
          0,
          0,
          64
        ],
        "AngioFlag": "N",
        "BitsAllocated": 16,
        "BitsStored": 12,
        "BodyPartExamined": "HEAD",
        "Columns": 384,
        "DeidentificationMethodCodeSequence": [
          {
            "CodeMeaning": "XNAT Edit Script",
            "CodeValue": "625500",
            "CodingSchemeDesignator": "XNAT",
            "CodingSchemeVersion": "0.1"
          }
        ],
        "EchoNumbers": 1,
        "EchoTime": 27.0,
        "EchoTrainLength": 1,
        "FlipAngle": 90.0,
        "HighBit": 11,
        "ImageOrientationPatient": [
          0.99941566554651,
          -0.0341636216802,
          0.00108370380149,
          0.03175745220294,
          0.93981748225772,
          0.34019783108117
        ],
        "ImagePositionPatient": [
          -798.54748462109,
          -673.56481468857,
          -276.55037624532
        ],
        "ImageType": [
          "ORIGINAL",
          "PRIMARY",
          "M",
          "ND",
          "NORM",
          "MOSAIC"
        ],
        "ImagedNucleus": "1H",
        "ImagingFrequency": 123.255881,
        "InPlanePhaseEncodingDirection": "COL",
        "MRAcquisitionType": "2D",
        "MagneticFieldStrength": 3.0,
        "Manufacturer": "SIEMENS",
        "ManufacturerModelName": "TrioTim",
        "Modality": "MR",
        "NumberOfAverages": 1.0,
        "NumberOfPhaseEncodingSteps": 64,
        "PercentPhaseFieldOfView": 100.0,
        "PercentSampling": 100.0,
        "PerformedProcedureStepStartTime": "135658.187000",
        "PhotometricInterpretation": "MONOCHROME2",
        "PixelBandwidth": 1905.0,
        "PixelRepresentation": 0,
        "PixelSpacing": [
          4.0,
          4.0
        ],
        "PositionReferenceIndicator": "",
        "ProtocolName": "ep2d_bold_rest1",
        "RepetitionTime": 2500.0,
        "Rows": 384,
        "SAR": 0.13945054244287,
        "SamplesPerPixel": 1,
        "ScanOptions": "FS",
        "ScanningSequence": "EP",
        "SequenceName": "*epfid2d1_64",
        "SequenceVariant": "SK",
        "SeriesDescription": "ep2d_bold_rest1",
        "SeriesNumber": 6,
        "SeriesTime": "141015.062000",
        "SliceLocation": -20.972500658,
        "SliceThickness": 4.0,
        "SmallestImagePixelValue": 0,
        "SoftwareVersions": "syngo MR B17",
        "SpacingBetweenSlices": 3.9999994528841,
        "SpecificCharacterSet": "ISO_IR 100",
        "StudyID": "1",
        "StudyTime": "135658.140000",
        "TransmitCoilName": "Body",
        "VariableFlipAngleFlag": "N",
        "WindowCenterWidthExplanation": "Algo1",
        "dBdt": 0.0
      },
      "slices": {}
    },
    "modality": "bold",
    "subject_id": "CTS211",
    "task_id": "restbaseline",
    "time": {
      "samples": {
        "AcquisitionNumber": [
          1,
          2,
          3,
          4,
          5,
          6,
          7,
          8,
          9,
          10,
          11,
          12,
          13,
          14,
          15,
          16,
          17,
          18,
          19,
          20,
          21,
          22,
          23,
          24,
          25,
          26,
          27,
          28,
          29,
          30,
          31,
          32,
          33,
          34,
          35,
          36,
          37,
          38,
          39,
          40,
          41,
          42,
          43,
          44,
          45,
          46,
          47,
          48,
          49,
          50,
          51,
          52,
          53,
          54,
          55,
          56,
          57,
          58,
          59,
          60,
          61,
          62,
          63,
          64,
          65,
          66,
          67,
          68,
          69,
          70,
          71,
          72,
          73,
          74,
          75,
          76,
          77,
          78,
          79,
          80,
          81,
          82,
          83,
          84,
          85,
          86,
          87,
          88,
          89,
          90,
          91,
          92,
          93,
          94,
          95,
          96,
          97,
          98,
          99,
          100,
          101,
          102,
          103,
          104,
          105,
          106,
          107,
          108,
          109,
          110,
          111,
          112,
          113,
          114,
          115,
          116,
          117,
          118,
          119,
          120,
          121,
          122,
          123,
          124,
          125,
          126,
          127,
          128,
          129,
          130,
          131,
          132,
          133,
          134,
          135,
          136,
          137,
          138,
          139,
          140,
          141,
          142,
          143,
          144,
          145,
          146,
          147,
          148,
          149,
          150,
          151,
          152,
          153,
          154,
          155,
          156,
          157,
          158,
          159,
          160,
          161,
          162,
          163,
          164
        ],
        "AcquisitionTime": [
          "141013.532500",
          "141016.042500",
          "141018.552500",
          "141021.062500",
          "141023.572500",
          "141026.082500",
          "141028.592500",
          "141031.102500",
          "141033.612500",
          "141036.122500",
          "141038.632500",
          "141041.142500",
          "141043.652500",
          "141046.162500",
          "141048.672500",
          "141051.182500",
          "141053.692500",
          "141056.202500",
          "141058.712500",
          "141101.222500",
          "141103.732500",
          "141106.242500",
          "141108.755000",
          "141111.265000",
          "141113.775000",
          "141116.285000",
          "141118.795000",
          "141121.305000",
          "141123.815000",
          "141126.325000",
          "141128.835000",
          "141131.345000",
          "141133.855000",
          "141136.365000",
          "141138.875000",
          "141141.385000",
          "141143.895000",
          "141146.405000",
          "141148.915000",
          "141151.425000",
          "141153.935000",
          "141156.445000",
          "141158.955000",
          "141201.465000",
          "141203.975000",
          "141206.485000",
          "141208.995000",
          "141211.505000",
          "141214.015000",
          "141216.525000",
          "141219.035000",
          "141221.545000",
          "141224.055000",
          "141226.565000",
          "141229.075000",
          "141231.585000",
          "141234.095000",
          "141236.605000",
          "141239.115000",
          "141241.625000",
          "141244.135000",
          "141246.645000",
          "141249.155000",
          "141251.665000",
          "141254.175000",
          "141256.685000",
          "141259.195000",
          "141301.705000",
          "141304.215000",
          "141306.725000",
          "141309.235000",
          "141311.745000",
          "141314.255000",
          "141316.765000",
          "141319.275000",
          "141321.785000",
          "141324.295000",
          "141326.805000",
          "141329.315000",
          "141331.825000",
          "141334.335000",
          "141336.845000",
          "141339.355000",
          "141341.865000",
          "141344.377500",
          "141346.887500",
          "141349.397500",
          "141351.907500",
          "141354.417500",
          "141356.927500",
          "141359.437500",
          "141401.947500",
          "141404.457500",
          "141406.967500",
          "141409.477500",
          "141411.987500",
          "141414.497500",
          "141417.007500",
          "141419.517500",
          "141422.027500",
          "141424.537500",
          "141427.047500",
          "141429.557500",
          "141432.067500",
          "141434.577500",
          "141437.087500",
          "141439.597500",
          "141442.107500",
          "141444.617500",
          "141447.127500",
          "141449.637500",
          "141452.147500",
          "141454.657500",
          "141457.167500",
          "141459.677500",
          "141502.187500",
          "141504.697500",
          "141507.207500",
          "141509.717500",
          "141512.227500",
          "141514.737500",
          "141517.247500",
          "141519.757500",
          "141522.267500",
          "141524.777500",
          "141527.287500",
          "141529.797500",
          "141532.307500",
          "141534.817500",
          "141537.327500",
          "141539.837500",
          "141542.347500",
          "141544.857500",
          "141547.367500",
          "141549.877500",
          "141552.387500",
          "141554.897500",
          "141557.407500",
          "141559.917500",
          "141602.427500",
          "141604.937500",
          "141607.447500",
          "141609.957500",
          "141612.467500",
          "141614.977500",
          "141617.487500",
          "141620.000000",
          "141622.510000",
          "141625.020000",
          "141627.530000",
          "141630.040000",
          "141632.550000",
          "141635.060000",
          "141637.570000",
          "141640.080000",
          "141642.590000",
          "141645.100000",
          "141647.610000",
          "141650.120000",
          "141652.630000",
          "141655.140000",
          "141657.650000",
          "141700.160000",
          "141702.670000"
        ],
        "ContentTime": [
          "141015.062000",
          "141017.562000",
          "141020.062000",
          "141022.562000",
          "141025.062000",
          "141027.562000",
          "141030.062000",
          "141032.562000",
          "141035.062000",
          "141037.562000",
          "141040.062000",
          "141042.562000",
          "141045.062000",
          "141047.562000",
          "141050.062000",
          "141052.562000",
          "141055.062000",
          "141057.562000",
          "141100.062000",
          "141102.562000",
          "141105.062000",
          "141107.562000",
          "141110.062000",
          "141112.562000",
          "141115.062000",
          "141117.562000",
          "141120.062000",
          "141122.562000",
          "141125.062000",
          "141127.562000",
          "141130.062000",
          "141132.562000",
          "141135.062000",
          "141137.562000",
          "141140.062000",
          "141142.562000",
          "141145.062000",
          "141147.562000",
          "141150.062000",
          "141152.562000",
          "141155.062000",
          "141157.562000",
          "141200.062000",
          "141202.562000",
          "141205.062000",
          "141207.562000",
          "141210.062000",
          "141212.562000",
          "141215.062000",
          "141217.562000",
          "141220.062000",
          "141222.562000",
          "141225.062000",
          "141227.562000",
          "141230.062000",
          "141232.562000",
          "141235.062000",
          "141237.562000",
          "141240.062000",
          "141242.562000",
          "141245.062000",
          "141247.562000",
          "141250.062000",
          "141252.562000",
          "141255.062000",
          "141257.562000",
          "141300.062000",
          "141302.562000",
          "141305.062000",
          "141307.562000",
          "141310.062000",
          "141312.562000",
          "141315.062000",
          "141317.562000",
          "141320.062000",
          "141322.562000",
          "141325.062000",
          "141327.562000",
          "141330.062000",
          "141332.562000",
          "141335.062000",
          "141337.562000",
          "141340.062000",
          "141342.562000",
          "141345.062000",
          "141347.562000",
          "141350.062000",
          "141352.562000",
          "141355.062000",
          "141357.562000",
          "141400.062000",
          "141402.562000",
          "141405.062000",
          "141407.562000",
          "141410.062000",
          "141412.562000",
          "141415.062000",
          "141417.578000",
          "141420.062000",
          "141422.562000",
          "141425.062000",
          "141427.562000",
          "141430.062000",
          "141432.562000",
          "141435.062000",
          "141437.562000",
          "141440.062000",
          "141442.562000",
          "141445.062000",
          "141447.562000",
          "141450.062000",
          "141452.562000",
          "141455.062000",
          "141457.562000",
          "141500.062000",
          "141502.562000",
          "141505.062000",
          "141507.562000",
          "141510.062000",
          "141512.562000",
          "141515.062000",
          "141517.562000",
          "141520.062000",
          "141522.562000",
          "141525.062000",
          "141527.562000",
          "141530.062000",
          "141532.562000",
          "141535.062000",
          "141537.562000",
          "141540.062000",
          "141542.562000",
          "141545.062000",
          "141547.562000",
          "141550.062000",
          "141552.562000",
          "141555.062000",
          "141557.562000",
          "141600.062000",
          "141602.562000",
          "141605.062000",
          "141607.562000",
          "141610.062000",
          "141612.562000",
          "141615.062000",
          "141617.562000",
          "141620.062000",
          "141622.562000",
          "141625.062000",
          "141627.562000",
          "141630.062000",
          "141632.562000",
          "141635.062000",
          "141637.562000",
          "141640.062000",
          "141642.562000",
          "141645.062000",
          "141647.562000",
          "141650.062000",
          "141652.562000",
          "141655.062000",
          "141657.562000",
          "141700.062000",
          "141702.421000"
        ],
        "InstanceCreationTime": [
          "141015.062000",
          "141017.562000",
          "141020.062000",
          "141022.562000",
          "141025.062000",
          "141027.562000",
          "141030.062000",
          "141032.562000",
          "141035.062000",
          "141037.562000",
          "141040.062000",
          "141042.562000",
          "141045.062000",
          "141047.562000",
          "141050.062000",
          "141052.562000",
          "141055.062000",
          "141057.562000",
          "141100.062000",
          "141102.562000",
          "141105.062000",
          "141107.562000",
          "141110.062000",
          "141112.562000",
          "141115.062000",
          "141117.562000",
          "141120.062000",
          "141122.562000",
          "141125.062000",
          "141127.562000",
          "141130.062000",
          "141132.562000",
          "141135.062000",
          "141137.562000",
          "141140.062000",
          "141142.562000",
          "141145.062000",
          "141147.562000",
          "141150.062000",
          "141152.562000",
          "141155.062000",
          "141157.562000",
          "141200.062000",
          "141202.562000",
          "141205.062000",
          "141207.562000",
          "141210.062000",
          "141212.562000",
          "141215.062000",
          "141217.562000",
          "141220.062000",
          "141222.562000",
          "141225.062000",
          "141227.562000",
          "141230.062000",
          "141232.562000",
          "141235.062000",
          "141237.562000",
          "141240.062000",
          "141242.562000",
          "141245.062000",
          "141247.562000",
          "141250.062000",
          "141252.562000",
          "141255.062000",
          "141257.562000",
          "141300.062000",
          "141302.562000",
          "141305.062000",
          "141307.562000",
          "141310.062000",
          "141312.562000",
          "141315.062000",
          "141317.562000",
          "141320.062000",
          "141322.562000",
          "141325.062000",
          "141327.562000",
          "141330.062000",
          "141332.562000",
          "141335.062000",
          "141337.562000",
          "141340.062000",
          "141342.562000",
          "141345.062000",
          "141347.562000",
          "141350.062000",
          "141352.562000",
          "141355.062000",
          "141357.562000",
          "141400.062000",
          "141402.562000",
          "141405.062000",
          "141407.562000",
          "141410.062000",
          "141412.562000",
          "141415.062000",
          "141417.578000",
          "141420.062000",
          "141422.562000",
          "141425.062000",
          "141427.562000",
          "141430.062000",
          "141432.562000",
          "141435.062000",
          "141437.562000",
          "141440.062000",
          "141442.562000",
          "141445.062000",
          "141447.562000",
          "141450.062000",
          "141452.562000",
          "141455.062000",
          "141457.562000",
          "141500.062000",
          "141502.562000",
          "141505.062000",
          "141507.562000",
          "141510.062000",
          "141512.562000",
          "141515.062000",
          "141517.562000",
          "141520.062000",
          "141522.562000",
          "141525.062000",
          "141527.562000",
          "141530.062000",
          "141532.562000",
          "141535.062000",
          "141537.562000",
          "141540.062000",
          "141542.562000",
          "141545.062000",
          "141547.562000",
          "141550.062000",
          "141552.562000",
          "141555.062000",
          "141557.562000",
          "141600.062000",
          "141602.562000",
          "141605.062000",
          "141607.562000",
          "141610.062000",
          "141612.562000",
          "141615.062000",
          "141617.562000",
          "141620.062000",
          "141622.562000",
          "141625.062000",
          "141627.562000",
          "141630.062000",
          "141632.562000",
          "141635.062000",
          "141637.562000",
          "141640.062000",
          "141642.562000",
          "141645.062000",
          "141647.562000",
          "141650.062000",
          "141652.562000",
          "141655.062000",
          "141657.562000",
          "141700.062000",
          "141702.421000"
        ],
        "InstanceNumber": [
          1,
          2,
          3,
          4,
          5,
          6,
          7,
          8,
          9,
          10,
          11,
          12,
          13,
          14,
          15,
          16,
          17,
          18,
          19,
          20,
          21,
          22,
          23,
          24,
          25,
          26,
          27,
          28,
          29,
          30,
          31,
          32,
          33,
          34,
          35,
          36,
          37,
          38,
          39,
          40,
          41,
          42,
          43,
          44,
          45,
          46,
          47,
          48,
          49,
          50,
          51,
          52,
          53,
          54,
          55,
          56,
          57,
          58,
          59,
          60,
          61,
          62,
          63,
          64,
          65,
          66,
          67,
          68,
          69,
          70,
          71,
          72,
          73,
          74,
          75,
          76,
          77,
          78,
          79,
          80,
          81,
          82,
          83,
          84,
          85,
          86,
          87,
          88,
          89,
          90,
          91,
          92,
          93,
          94,
          95,
          96,
          97,
          98,
          99,
          100,
          101,
          102,
          103,
          104,
          105,
          106,
          107,
          108,
          109,
          110,
          111,
          112,
          113,
          114,
          115,
          116,
          117,
          118,
          119,
          120,
          121,
          122,
          123,
          124,
          125,
          126,
          127,
          128,
          129,
          130,
          131,
          132,
          133,
          134,
          135,
          136,
          137,
          138,
          139,
          140,
          141,
          142,
          143,
          144,
          145,
          146,
          147,
          148,
          149,
          150,
          151,
          152,
          153,
          154,
          155,
          156,
          157,
          158,
          159,
          160,
          161,
          162,
          163,
          164
        ],
        "LargestImagePixelValue": [
          1310,
          1332,
          1313,
          1326,
          1354,
          1491,
          1327,
          1303,
          1296,
          1304,
          1446,
          1410,
          1317,
          1317,
          1323,
          1309,
          1327,
          1323,
          1289,
          1273,
          1314,
          1279,
          1323,
          1300,
          1279,
          1282,
          1312,
          1293,
          1298,
          1305,
          1352,
          1315,
          1307,
          1330,
          1335,
          1344,
          1339,
          1321,
          1312,
          1289,
          1301,
          1304,
          1301,
          1312,
          1312,
          1315,
          1371,
          1327,
          1312,
          1321,
          1314,
          1440,
          1385,
          1314,
          1283,
          1340,
          1330,
          1332,
          1306,
          1354,
          1320,
          1381,
          1304,
          1553,
          1312,
          1308,
          1339,
          1330,
          1482,
          1348,
          1310,
          1349,
          1329,
          1319,
          1313,
          1404,
          1323,
          1304,
          1308,
          1312,
          1287,
          1371,
          1301,
          1322,
          1377,
          1267,
          1298,
          1294,
          1359,
          1289,
          1297,
          1273,
          1300,
          1304,
          1306,
          1288,
          1281,
          1314,
          1287,
          1480,
          1273,
          1296,
          1291,
          1299,
          1304,
          1292,
          1307,
          1288,
          1302,
          1304,
          1290,
          1350,
          1329,
          1448,
          1303,
          1310,
          1289,
          1309,
          1291,
          1317,
          1289,
          1295,
          1341,
          1309,
          1326,
          1302,
          1269,
          1315,
          1306,
          1283,
          1311,
          1305,
          1313,
          1266,
          1289,
          1277,
          1276,
          1296,
          1293,
          1287,
          1276,
          1320,
          1289,
          1302,
          1277,
          1324,
          1289,
          1314,
          1286,
          1379,
          1316,
          1304,
          1278,
          1328,
          1305,
          1312,
          1293,
          1297,
          1295,
          1293,
          1300,
          1295,
          1267,
          1298
        ],
        "WindowCenter": [
          619.0,
          620.0,
          621.0,
          621.0,
          621.0,
          619.0,
          618.0,
          621.0,
          619.0,
          620.0,
          620.0,
          619.0,
          618.0,
          619.0,
          618.0,
          617.0,
          620.0,
          618.0,
          617.0,
          618.0,
          619.0,
          618.0,
          619.0,
          618.0,
          618.0,
          618.0,
          619.0,
          618.0,
          618.0,
          618.0,
          618.0,
          619.0,
          617.0,
          619.0,
          624.0,
          619.0,
          618.0,
          619.0,
          619.0,
          619.0,
          619.0,
          619.0,
          617.0,
          618.0,
          618.0,
          618.0,
          620.0,
          619.0,
          617.0,
          616.0,
          618.0,
          618.0,
          617.0,
          617.0,
          618.0,
          620.0,
          621.0,
          620.0,
          621.0,
          619.0,
          621.0,
          621.0,
          620.0,
          621.0,
          618.0,
          620.0,
          620.0,
          620.0,
          621.0,
          618.0,
          619.0,
          620.0,
          620.0,
          619.0,
          619.0,
          620.0,
          618.0,
          619.0,
          619.0,
          618.0,
          619.0,
          620.0,
          619.0,
          619.0,
          622.0,
          617.0,
          619.0,
          618.0,
          622.0,
          619.0,
          618.0,
          619.0,
          619.0,
          618.0,
          619.0,
          620.0,
          619.0,
          620.0,
          622.0,
          620.0,
          619.0,
          619.0,
          619.0,
          619.0,
          619.0,
          620.0,
          620.0,
          619.0,
          619.0,
          620.0,
          620.0,
          620.0,
          619.0,
          621.0,
          619.0,
          619.0,
          619.0,
          619.0,
          620.0,
          619.0,
          622.0,
          619.0,
          619.0,
          617.0,
          619.0,
          619.0,
          619.0,
          619.0,
          619.0,
          618.0,
          619.0,
          621.0,
          617.0,
          618.0,
          619.0,
          619.0,
          621.0,
          621.0,
          620.0,
          619.0,
          620.0,
          620.0,
          619.0,
          619.0,
          620.0,
          620.0,
          620.0,
          619.0,
          619.0,
          620.0,
          618.0,
