{
  "aor": 0.0037178658536585357,
  "aqi": 0.007537773292682928,
  "bids_meta": {
    "AcquisitionMatrixPE": 64,
    "AcquisitionNumber": 1,
    "AcquisitionTime": "14:18:7.500000",
    "BandwidthPerPixelPhaseEncode": 26.483,
    "BaseResolution": 64,
    "BodyPartExamined": "HEAD",
    "CogAtlasID": "TODO",
    "ConversionSoftware": "dcm2niix",
    "ConversionSoftwareVersion": "v1.0.20171017 GCC6.3.0",
    "DerivedVendorReportedEchoSpacing": 0.000590001,
    "DeviceSerialNumber": "35177",
    "DwellTime": 4.1e-06,
    "EchoTime": 0.027,
    "EffectiveEchoSpacing": 0.000590001,
    "FlipAngle": 90,
    "ImageOrientationPatientDICOM": [
      0.999416,
      -0.0341636,
      0.0010837,
      0.0317575,
      0.939817,
      0.340198
    ],
    "ImageType": [
      "ORIGINAL",
      "PRIMARY",
      "M",
      "ND",
      "NORM",
      "MOSAIC"
    ],
    "InPlanePhaseEncodingDirectionDICOM": "COL",
    "InstitutionAddress": "Scott_Ave._4525_St._Louis_MO_US_63110",
    "InstitutionName": "Washington_University",
    "InstitutionalDepartmentName": "Department",
    "MRAcquisitionType": "2D",
    "MagneticFieldStrength": 3,
    "Manufacturer": "Siemens",
    "ManufacturersModelName": "TrioTim",
    "Modality": "MR",
    "PartialFourier": 1,
    "PatientPosition": "HFS",
    "PercentPhaseFOV": 100,
    "PhaseEncodingDirection": "j-",
    "PhaseEncodingSteps": 64,
    "PhaseResolution": 1,
    "PixelBandwidth": 1905,
    "ProcedureStepDescription": "head_GREENE",
    "ProtocolName": "ep2d_bold_rest2",
    "PulseSequenceDetails": "%SiemensSeq%_ep2d_bold",
    "ReceiveCoilName": "HeadMatrix",
    "ReconMatrixPE": 64,
    "RepetitionTime": 2.5,
    "SAR": 0.139451,
    "ScanOptions": "FS",
    "ScanningSequence": "EP",
    "SequenceName": "_epfid2d1_64",
    "SequenceVariant": "SK",
    "SeriesDescription": "ep2d_bold_rest2",
    "SeriesNumber": 7,
    "ShimSetting": [
      -231,
      -19678,
      7947,
      183,
      42,
      -480,
      420,
      123
    ],
    "SliceThickness": 4,
    "SliceTiming": [
      1.255,
      0,
      1.3325,
      0.0775,
      1.41,
      0.155,
      1.49,
      0.235,
      1.5675,
      0.3125,
      1.645,
      0.3925,
      1.725,
      0.47,
      1.8025,
      0.5475,
      1.8825,
      0.6275,
      1.96,
      0.705,
      2.0375,
      0.7825,
      2.1175,
      0.8625,
      2.195,
      0.94,
      2.2725,
      1.02,
      2.3525,
      1.0975,
      2.43,
      1.175
    ],
    "SoftwareVersions": "syngo_MR_B17",
    "SpacingBetweenSlices": 4,
    "StationName": "MRC35177",
    "TaskName": "restfixationnofeedback",
    "TotalReadoutTime": 0.0371701,
    "TxRefAmp": 349.43,
    "dataset": "ds000256",
    "dcmmeta_affine": [
      [
        -3.9976625442504883,
        0.12702980637550354,
        0.05056348815560341,
        130.59381103515625
      ],
      [
        0.13665448129177094,
        3.759269952774048,
        1.3598582744598389,
        -142.88766479492188
      ],
      [
        0.004334815312176943,
        -1.3607913255691528,
        3.7614126205444336,
        27.599658966064453
      ],
      [
        0.0,
        0.0,
        0.0,
        1.0
      ]
    ],
    "dcmmeta_reorient_transform": [
      [
        0.0,
        -1.0,
        0.0,
        63.0
      ],
      [
        1.0,
        0.0,
        0.0,
        0.0
      ],
      [
        0.0,
        0.0,
        1.0,
        0.0
      ],
      [
        0.0,
        0.0,
        0.0,
        1.0
      ]
    ],
    "dcmmeta_shape": [
      64,
      64,
      32,
      164
    ],
    "dcmmeta_slice_dim": 2,
    "dcmmeta_version": 0.6,
    "global": {
      "const": {
        "AccessionNumber": ".",
        "AcquisitionMatrix": [
          64,
          0,
          0,
          64
        ],
        "AngioFlag": "N",
        "BitsAllocated": 16,
        "BitsStored": 12,
        "BodyPartExamined": "HEAD",
        "Columns": 384,
        "DeidentificationMethodCodeSequence": [
          {
            "CodeMeaning": "XNAT Edit Script",
            "CodeValue": "625500",
            "CodingSchemeDesignator": "XNAT",
            "CodingSchemeVersion": "0.1"
          }
        ],
        "EchoNumbers": 1,
        "EchoTime": 27.0,
        "EchoTrainLength": 1,
        "FlipAngle": 90.0,
        "HighBit": 11,
        "ImageOrientationPatient": [
          0.99941566554651,
          -0.0341636216802,
          0.00108370380149,
          0.03175745220294,
          0.93981748225772,
          0.34019783108117
        ],
        "ImagePositionPatient": [
          -798.54747985272,
          -673.56481659592,
          -276.55037624532
        ],
        "ImageType": [
          "ORIGINAL",
          "PRIMARY",
          "M",
          "ND",
          "NORM",
          "MOSAIC"
        ],
        "ImagedNucleus": "1H",
        "ImagingFrequency": 123.255884,
        "InPlanePhaseEncodingDirection": "COL",
        "MRAcquisitionType": "2D",
        "MagneticFieldStrength": 3.0,
        "Manufacturer": "SIEMENS",
        "ManufacturerModelName": "TrioTim",
        "Modality": "MR",
        "NumberOfAverages": 1.0,
        "NumberOfPhaseEncodingSteps": 64,
        "PercentPhaseFieldOfView": 100.0,
        "PercentSampling": 100.0,
        "PerformedProcedureStepStartTime": "135658.187000",
        "PhotometricInterpretation": "MONOCHROME2",
        "PixelBandwidth": 1905.0,
        "PixelRepresentation": 0,
        "PixelSpacing": [
          4.0,
          4.0
        ],
        "PositionReferenceIndicator": "",
        "ProtocolName": "ep2d_bold_rest2",
        "RepetitionTime": 2500.0,
        "Rows": 384,
        "SAR": 0.13945054244287,
        "SamplesPerPixel": 1,
        "ScanOptions": "FS",
        "ScanningSequence": "EP",
        "SequenceName": "*epfid2d1_64",
        "SequenceVariant": "SK",
        "SeriesDescription": "ep2d_bold_rest2",
        "SeriesNumber": 7,
        "SeriesTime": "141810.281000",
        "SliceLocation": -20.972500069845,
        "SliceThickness": 4.0,
        "SmallestImagePixelValue": 0,
        "SoftwareVersions": "syngo MR B17",
        "SpacingBetweenSlices": 3.999999431967,
        "SpecificCharacterSet": "ISO_IR 100",
        "StudyID": "1",
        "StudyTime": "135658.140000",
        "TransmitCoilName": "Body",
        "VariableFlipAngleFlag": "N",
        "WindowCenterWidthExplanation": "Algo1",
        "dBdt": 0.0
      },
      "slices": {}
    },
    "modality": "bold",
    "subject_id": "CTS211",
    "task_id": "restfixationnofeedback",
    "time": {
      "samples": {
        "AcquisitionNumber": [
          1,
          2,
          3,
          4,
          5,
          6,
          7,
          8,
          9,
          10,
          11,
          12,
          13,
          14,
          15,
          16,
          17,
          18,
          19,
          20,
          21,
          22,
          23,
          24,
          25,
          26,
          27,
          28,
          29,
          30,
          31,
          32,
          33,
          34,
          35,
          36,
          37,
          38,
          39,
          40,
          41,
          42,
          43,
          44,
          45,
          46,
          47,
          48,
          49,
          50,
          51,
          52,
          53,
          54,
          55,
          56,
          57,
          58,
          59,
          60,
          61,
          62,
          63,
          64,
          65,
          66,
          67,
          68,
          69,
          70,
          71,
          72,
          73,
          74,
          75,
          76,
          77,
          78,
          79,
          80,
          81,
          82,
          83,
          84,
          85,
          86,
          87,
          88,
          89,
          90,
          91,
          92,
          93,
          94,
          95,
          96,
          97,
          98,
          99,
          100,
          101,
          102,
          103,
          104,
          105,
          106,
          107,
          108,
          109,
          110,
          111,
          112,
          113,
          114,
          115,
          116,
          117,
          118,
          119,
          120,
          121,
          122,
          123,
          124,
          125,
          126,
          127,
          128,
          129,
          130,
          131,
          132,
          133,
          134,
          135,
          136,
          137,
          138,
          139,
          140,
          141,
          142,
          143,
          144,
          145,
          146,
          147,
          148,
          149,
          150,
          151,
          152,
          153,
          154,
          155,
          156,
          157,
          158,
          159,
          160,
          161,
          162,
          163,
          164
        ],
        "AcquisitionTime": [
          "141807.500000",
          "141810.010000",
          "141812.520000",
          "141815.030000",
          "141817.540000",
          "141820.050000",
          "141822.560000",
          "141825.070000",
          "141827.580000",
          "141830.090000",
          "141832.600000",
          "141835.110000",
          "141837.620000",
          "141840.130000",
          "141842.640000",
          "141845.150000",
          "141847.660000",
          "141850.170000",
          "141852.680000",
          "141855.190000",
          "141857.700000",
          "141900.210000",
          "141902.720000",
          "141905.230000",
          "141907.740000",
          "141910.250000",
          "141912.760000",
          "141915.270000",
          "141917.780000",
          "141920.290000",
          "141922.800000",
          "141925.310000",
          "141927.820000",
          "141930.330000",
          "141932.840000",
          "141935.350000",
          "141937.860000",
          "141940.370000",
          "141942.880000",
          "141945.390000",
          "141947.900000",
          "141950.410000",
          "141952.920000",
          "141955.430000",
          "141957.940000",
          "142000.450000",
          "142002.960000",
          "142005.470000",
          "142007.980000",
          "142010.490000",
          "142013.000000",
          "142015.510000",
          "142018.020000",
          "142020.530000",
          "142023.040000",
          "142025.552500",
          "142028.062500",
          "142030.572500",
          "142033.082500",
          "142035.592500",
          "142038.102500",
          "142040.612500",
          "142043.122500",
          "142045.632500",
          "142048.142500",
          "142050.652500",
          "142053.162500",
          "142055.672500",
          "142058.182500",
          "142100.692500",
          "142103.202500",
          "142105.712500",
          "142108.222500",
          "142110.732500",
          "142113.242500",
          "142115.752500",
          "142118.262500",
          "142120.772500",
          "142123.282500",
          "142125.792500",
          "142128.302500",
          "142130.812500",
          "142133.322500",
          "142135.832500",
          "142138.342500",
          "142140.852500",
          "142143.362500",
          "142145.872500",
          "142148.382500",
          "142150.892500",
          "142153.402500",
          "142155.912500",
          "142158.422500",
          "142200.932500",
          "142203.442500",
          "142205.952500",
          "142208.462500",
          "142210.972500",
          "142213.482500",
          "142215.992500",
          "142218.502500",
          "142221.012500",
          "142223.522500",
          "142226.032500",
          "142228.542500",
          "142231.052500",
          "142233.562500",
          "142236.072500",
          "142238.582500",
          "142241.092500",
          "142243.602500",
          "142246.112500",
          "142248.622500",
          "142251.132500",
          "142253.642500",
          "142256.152500",
          "142258.662500",
          "142301.175000",
          "142303.685000",
          "142306.195000",
          "142308.705000",
          "142311.215000",
          "142313.725000",
          "142316.235000",
          "142318.745000",
          "142321.255000",
          "142323.765000",
          "142326.275000",
          "142328.785000",
          "142331.295000",
          "142333.805000",
          "142336.315000",
          "142338.825000",
          "142341.335000",
          "142343.845000",
          "142346.355000",
          "142348.865000",
          "142351.375000",
          "142353.885000",
          "142356.395000",
          "142358.905000",
          "142401.415000",
          "142403.925000",
          "142406.435000",
          "142408.945000",
          "142411.455000",
          "142413.965000",
          "142416.475000",
          "142418.985000",
          "142421.495000",
          "142424.005000",
          "142426.515000",
          "142429.025000",
          "142431.535000",
          "142434.045000",
          "142436.555000",
          "142439.065000",
          "142441.575000",
          "142444.085000",
          "142446.595000",
          "142449.105000",
          "142451.615000",
          "142454.125000",
          "142456.635000"
        ],
        "ContentTime": [
          "141810.281000",
          "141812.281000",
          "141814.781000",
          "141817.281000",
          "141819.781000",
          "141822.781000",
          "141824.781000",
          "141827.281000",
          "141829.781000",
          "141832.781000",
          "141834.781000",
          "141837.281000",
          "141839.781000",
          "141842.781000",
          "141844.781000",
          "141847.781000",
          "141850.281000",
          "141852.781000",
          "141854.781000",
          "141857.281000",
          "141859.781000",
          "141902.781000",
          "141904.781000",
          "141907.781000",
          "141910.281000",
          "141912.781000",
          "141914.781000",
          "141917.281000",
          "141919.781000",
          "141922.781000",
          "141924.781000",
          "141927.281000",
          "141929.781000",
          "141932.781000",
          "141934.781000",
          "141937.281000",
          "141939.781000",
          "141942.781000",
          "141944.781000",
          "141947.281000",
          "141949.781000",
          "141952.781000",
          "141954.781000",
          "141957.781000",
          "141959.781000",
          "142002.781000",
          "142005.281000",
          "142007.781000",
          "142009.781000",
          "142012.281000",
          "142015.281000",
          "142017.281000",
          "142020.281000",
          "142022.781000",
          "142024.781000",
          "142027.781000",
          "142029.781000",
          "142032.781000",
          "142034.781000",
          "142037.781000",
          "142039.781000",
          "142042.781000",
          "142044.781000",
          "142047.781000",
          "142050.281000",
          "142052.781000",
          "142054.781000",
          "142057.781000",
          "142059.781000",
          "142102.781000",
          "142104.781000",
          "142107.281000",
          "142109.781000",
          "142112.781000",
          "142114.781000",
          "142117.281000",
          "142120.281000",
          "142122.781000",
          "142124.781000",
          "142127.781000",
          "142129.781000",
          "142132.781000",
          "142134.781000",
          "142137.281000",
          "142139.781000",
          "142142.781000",
          "142144.781000",
          "142147.781000",
          "142149.781000",
          "142152.781000",
          "142154.781000",
          "142157.781000",
          "142200.281000",
          "142202.781000",
          "142204.781000",
          "142207.781000",
          "142210.281000",
          "142212.781000",
          "142215.281000",
          "142217.281000",
          "142219.781000",
          "142222.781000",
          "142224.781000",
          "142227.781000",
          "142230.281000",
          "142232.781000",
          "142234.781000",
          "142237.781000",
          "142239.781000",
          "142242.781000",
          "142244.781000",
          "142247.781000",
          "142249.781000",
          "142252.781000",
          "142254.781000",
          "142257.781000",
          "142300.281000",
          "142302.781000",
          "142304.781000",
          "142307.781000",
          "142309.781000",
          "142312.781000",
          "142314.781000",
          "142317.781000",
          "142319.781000",
          "142322.781000",
          "142324.781000",
          "142327.781000",
          "142329.781000",
          "142332.781000",
          "142334.781000",
          "142337.281000",
          "142340.281000",
          "142342.781000",
          "142344.781000",
          "142347.781000",
          "142350.281000",
          "142352.781000",
          "142354.781000",
          "142357.781000",
          "142359.781000",
          "142402.781000",
          "142404.781000",
          "142407.781000",
          "142409.781000",
          "142412.781000",
          "142414.781000",
          "142417.781000",
          "142419.781000",
          "142422.781000",
          "142424.781000",
          "142427.781000",
          "142429.781000",
          "142432.781000",
          "142435.281000",
          "142437.781000",
          "142439.781000",
          "142442.781000",
          "142444.781000",
          "142447.781000",
          "142449.781000",
          "142452.781000",
          "142454.781000",
          "142457.281000"
        ],
        "InstanceCreationTime": [
          "141810.281000",
          "141812.281000",
          "141814.781000",
          "141817.281000",
          "141819.781000",
          "141822.781000",
          "141824.781000",
          "141827.281000",
          "141829.781000",
          "141832.781000",
          "141834.781000",
          "141837.281000",
          "141839.781000",
          "141842.781000",
          "141844.781000",
          "141847.781000",
          "141850.281000",
          "141852.781000",
          "141854.781000",
          "141857.281000",
          "141859.781000",
          "141902.781000",
          "141904.781000",
          "141907.781000",
          "141910.281000",
          "141912.781000",
          "141914.781000",
          "141917.281000",
          "141919.781000",
          "141922.781000",
          "141924.781000",
          "141927.281000",
          "141929.781000",
          "141932.781000",
          "141934.781000",
          "141937.281000",
          "141939.781000",
          "141942.781000",
          "141944.781000",
          "141947.281000",
          "141949.781000",
          "141952.781000",
          "141954.781000",
          "141957.781000",
          "141959.781000",
          "142002.781000",
          "142005.281000",
          "142007.781000",
          "142009.781000",
          "142012.281000",
          "142015.281000",
          "142017.281000",
          "142020.281000",
          "142022.781000",
          "142024.781000",
          "142027.781000",
          "142029.781000",
          "142032.781000",
          "142034.781000",
          "142037.781000",
          "142039.781000",
          "142042.781000",
          "142044.781000",
          "142047.781000",
          "142050.281000",
          "142052.781000",
          "142054.781000",
          "142057.781000",
          "142059.781000",
          "142102.781000",
          "142104.781000",
          "142107.281000",
          "142109.781000",
          "142112.781000",
          "142114.781000",
          "142117.281000",
          "142120.281000",
          "142122.781000",
          "142124.781000",
          "142127.781000",
          "142129.781000",
          "142132.781000",
          "142134.781000",
          "142137.281000",
          "142139.781000",
          "142142.781000",
          "142144.781000",
          "142147.781000",
          "142149.781000",
          "142152.781000",
          "142154.781000",
          "142157.781000",
          "142200.281000",
          "142202.781000",
          "142204.781000",
          "142207.781000",
          "142210.281000",
          "142212.781000",
          "142215.281000",
          "142217.281000",
          "142219.781000",
          "142222.781000",
          "142224.781000",
          "142227.781000",
          "142230.281000",
          "142232.781000",
          "142234.781000",
          "142237.781000",
          "142239.781000",
          "142242.781000",
          "142244.781000",
          "142247.781000",
          "142249.781000",
          "142252.781000",
          "142254.781000",
          "142257.781000",
          "142300.281000",
          "142302.781000",
          "142304.781000",
          "142307.781000",
          "142309.781000",
          "142312.781000",
          "142314.781000",
          "142317.781000",
          "142319.781000",
          "142322.781000",
          "142324.781000",
          "142327.781000",
          "142329.781000",
          "142332.781000",
          "142334.781000",
          "142337.281000",
          "142340.281000",
          "142342.781000",
          "142344.781000",
          "142347.781000",
          "142350.281000",
          "142352.781000",
          "142354.781000",
          "142357.781000",
          "142359.781000",
          "142402.781000",
          "142404.781000",
          "142407.781000",
          "142409.781000",
          "142412.781000",
          "142414.781000",
          "142417.781000",
          "142419.781000",
          "142422.781000",
          "142424.781000",
          "142427.781000",
          "142429.781000",
          "142432.781000",
          "142435.281000",
          "142437.781000",
          "142439.781000",
          "142442.781000",
          "142444.781000",
          "142447.781000",
          "142449.781000",
          "142452.781000",
          "142454.781000",
          "142457.281000"
        ],
        "InstanceNumber": [
          1,
          2,
          3,
          4,
          5,
          6,
          7,
          8,
          9,
          10,
          11,
          12,
          13,
          14,
          15,
          16,
          17,
          18,
          19,
          20,
          21,
          22,
          23,
          24,
          25,
          26,
          27,
          28,
          29,
          30,
          31,
          32,
          33,
          34,
          35,
          36,
          37,
          38,
          39,
          40,
          41,
          42,
          43,
          44,
          45,
          46,
          47,
          48,
          49,
          50,
          51,
          52,
          53,
          54,
          55,
          56,
          57,
          58,
          59,
          60,
          61,
          62,
          63,
          64,
          65,
          66,
          67,
          68,
          69,
          70,
          71,
          72,
          73,
          74,
          75,
          76,
          77,
          78,
          79,
          80,
          81,
          82,
          83,
          84,
          85,
          86,
          87,
          88,
          89,
          90,
          91,
          92,
          93,
          94,
          95,
          96,
          97,
          98,
          99,
          100,
          101,
          102,
          103,
          104,
          105,
          106,
          107,
          108,
          109,
          110,
          111,
          112,
          113,
          114,
          115,
          116,
          117,
          118,
          119,
          120,
          121,
          122,
          123,
          124,
          125,
          126,
          127,
          128,
          129,
          130,
          131,
          132,
          133,
          134,
          135,
          136,
          137,
          138,
          139,
          140,
          141,
          142,
          143,
          144,
          145,
          146,
          147,
          148,
          149,
          150,
          151,
          152,
          153,
          154,
          155,
          156,
          157,
          158,
          159,
          160,
          161,
          162,
          163,
          164
        ],
        "LargestImagePixelValue": [
          1389,
          1390,
          1370,
          1375,
          1645,
          1414,
          1554,
          1382,
          1413,
          1377,
          1410,
          1408,
          1643,
          1460,
          1404,
          1371,
          1391,
          1392,
          1367,
          1378,
          1402,
          1426,
          1410,
          1358,
          1398,
          1441,
          1414,
          1398,
          1384,
          1460,
          1400,
          1427,
          1376,
          1466,
          1411,
          1380,
          1417,
          1691,
          1411,
          1364,
          1376,
          1434,
          1382,
          1366,
          1421,
          1383,
          1465,
          1395,
          1385,
          1445,
          1377,
          1409,
          1432,
          1403,
          1375,
          1461,
          1381,
          1391,
          1472,
          1446,
          1464,
          1409,
          1373,
          1368,
          1404,
          1453,
          1441,
          1380,
          1383,
          1511,
          1426,
          1398,
          1399,
          1449,
          1404,
          1453,
          1403,
          1413,
          1385,
          1381,
          1355,
          1420,
          1422,
          1422,
          1386,
          1335,
          1414,
          1369,
          1355,
          1446,
          1336,
          1448,
          1396,
          1349,
          1382,
          1460,
          1388,
          1482,
          1435,
          1389,
          1367,
          1373,
          1415,
          1405,
          1368,
          1413,
          1383,
          1396,
          1334,
          1389,
          1456,
          1395,
          1394,
          1372,
          1386,
          1397,
          1388,
          1381,
          1393,
          1428,
          1377,
          1385,
          1334,
          1367,
          1353,
          1341,
          1404,
          1349,
          1355,
          1366,
          1363,
          1367,
          1361,
          1386,
          1365,
          1395,
          1378,
          1388,
          1424,
          1381,
          1336,
          1408,
          1415,
          1382,
          1405,
          1355,
          1408,
          1381,
          1352,
          1389,
          1340,
          1349,
          1390,
          1341,
          1395,
          1365,
          1322,
          1376,
          1384,
          1449,
          1368,
          1375,
          1355,
          1341
        ],
        "WindowCenter": [
          623.0,
          623.0,
          625.0,
          624.0,
          624.0,
          623.0,
          623.0,
          623.0,
          624.0,
          623.0,
          624.0,
          619.0,
          619.0,
          622.0,
          619.0,
          618.0,
          620.0,
          620.0,
          621.0,
          624.0,
          624.0,
          620.0,
          620.0,
          623.0,
          624.0,
          625.0,
          620.0,
          624.0,
          621.0,
          625.0,
          621.0,
          624.0,
          624.0,
          624.0,
          623.0,
          621.0,
          625.0,
          621.0,
          623.0,
          623.0,
          624.0,
          624.0,
          623.0,
          620.0,
          624.0,
          623.0,
          623.0,
          620.0,
          623.0,
          624.0,
          621.0,
          624.0,
          620.0,
          623.0,
          619.0,
          623.0,
          623.0,
          620.0,
          620.0,
          620.0,
          624.0,
          623.0,
          623.0,
          618.0,
          622.0,
          623.0,
          618.0,
          619.0,
          623.0,
          623.0,
          622.0,
          622.0,
          622.0,
          622.0,
          623.0,
          623.0,
          623.0,
          623.0,
          620.0,
          622.0,
          623.0,
          620.0,
          619.0,
          624.0,
          619.0,
          619.0,
          623.0,
          619.0,
          623.0,
          624.0,
          621.0,
          623.0,
          622.0,
          619.0,
          620.0,
          619.0,
          620.0,
          624.0,
          619.0,
          618.0,
          619.0,
          620.0,
          620.0,
          619.0,
          624.0,
          620.0,
          620.0,
          623.0,
          620.0,
          622.0,
          624.0,
          623.0,
          620.0,
          623.0,
          619.0,
          620.0,
          620.0,
          619.0,
          620.0,
          620.0,
          621.0,
          621.0,
          620.0,
          619.0,
          619.0,
          619.0,
          623.0,
          621.0,
          621.0,
          620.0,
          620.0,
          621.0,
          621.0,
          621.0,
          620.0,
          621.0,
          619.0,
          621.0,
          620.0,
          620.0,
          623.0,
          620.0,
          620.0,
          621.0,
          620.0,
          620.0,
          620.0,
          618.0,
          619.0,
          619.0,
