{
  "aor": 0.0019028658536585368,
  "aqi": 0.0038560587804878053,
  "bids_meta": {
    "AcquisitionMatrixPE": 64,
    "AcquisitionNumber": 1,
    "AcquisitionTime": "14:53:21.130000",
    "BandwidthPerPixelPhaseEncode": 26.483,
    "BaseResolution": 64,
    "BodyPartExamined": "HEAD",
    "CogAtlasID": "TODO",
    "ConversionSoftware": "dcm2niix",
    "ConversionSoftwareVersion": "v1.0.20171017 GCC6.3.0",
    "DerivedVendorReportedEchoSpacing": 0.000590001,
    "DeviceSerialNumber": "35177",
    "DwellTime": 4.1e-06,
    "EchoTime": 0.027,
    "EffectiveEchoSpacing": 0.000590001,
    "FlipAngle": 90,
    "ImageOrientationPatientDICOM": [
      0.991832,
      -0.0890507,
      -0.091315,
      0.104461,
      0.977932,
      0.180935
    ],
    "ImageType": [
      "ORIGINAL",
      "PRIMARY",
      "M",
      "ND",
      "NORM",
      "MOSAIC"
    ],
    "InPlanePhaseEncodingDirectionDICOM": "COL",
    "InstitutionAddress": "Scott_Ave._4525_St._Louis_MO_US_63110",
    "InstitutionName": "Washington_University",
    "InstitutionalDepartmentName": "Department",
    "MRAcquisitionType": "2D",
    "MagneticFieldStrength": 3,
    "Manufacturer": "Siemens",
    "ManufacturersModelName": "TrioTim",
    "Modality": "MR",
    "PartialFourier": 1,
    "PatientPosition": "HFS",
    "PercentPhaseFOV": 100,
    "PhaseEncodingDirection": "j-",
    "PhaseEncodingSteps": 64,
    "PhaseResolution": 1,
    "PixelBandwidth": 1905,
    "ProcedureStepDescription": "head_GREENE",
    "ProtocolName": "ep2d_bold_ad_movie_2B",
    "PulseSequenceDetails": "%SiemensSeq%_ep2d_bold",
    "ReceiveCoilName": "HeadMatrix",
    "ReconMatrixPE": 64,
    "RepetitionTime": 2.5,
    "SAR": 0.137184,
    "ScanOptions": "FS",
    "ScanningSequence": "EP",
    "SequenceName": "_epfid2d1_64",
    "SequenceVariant": "SK",
    "SeriesDescription": "ep2d_bold_ad_movie_2B",
    "SeriesNumber": 13,
    "ShimSetting": [
      -282,
      -19604,
      7935,
      122,
      130,
      -777,
      305,
      50
    ],
    "SliceThickness": 4,
    "SliceTiming": [
      1.255,
      0,
      1.3325,
      0.0775,
      1.4125,
      0.1575,
      1.49,
      0.235,
      1.5675,
      0.3125,
      1.6475,
      0.3925,
      1.725,
      0.47,
      1.8025,
      0.5475,
      1.8825,
      0.6275,
      1.96,
      0.705,
      2.0375,
      0.785,
      2.1175,
      0.8625,
      2.195,
      0.94,
      2.275,
      1.02,
      2.3525,
      1.0975,
      2.43,
      1.175
    ],
    "SoftwareVersions": "syngo_MR_B17",
    "SpacingBetweenSlices": 4,
    "StationName": "MRC35177",
    "TaskName": "restmovieadaptive",
    "TotalReadoutTime": 0.0371701,
    "TxRefAmp": 344.841,
    "dataset": "ds000256",
    "dcmmeta_affine": [
      [
        -3.967329740524292,
        0.4178432524204254,
        -0.29274997115135193,
        121.53976440429688
      ],
      [
        0.35620298981666565,
        3.911726951599121,
        0.7559839487075806,
        -151.08261108398438
      ],
      [
        -0.3652600049972534,
        -0.7237393856048584,
        3.9169888496398926,
        9.592391014099121
      ],
      [
        0.0,
        0.0,
        0.0,
        1.0
      ]
    ],
    "dcmmeta_reorient_transform": [
      [
        0.0,
        -1.0,
        0.0,
        63.0
      ],
      [
        1.0,
        0.0,
        0.0,
        0.0
      ],
      [
        0.0,
        0.0,
        1.0,
        0.0
      ],
      [
        0.0,
        0.0,
        0.0,
        1.0
      ]
    ],
    "dcmmeta_shape": [
      64,
      64,
      32,
      164
    ],
    "dcmmeta_slice_dim": 2,
    "dcmmeta_version": 0.6,
    "global": {
      "const": {
        "AccessionNumber": ".",
        "AcquisitionMatrix": [
          64,
          0,
          0,
          64
        ],
        "AngioFlag": "N",
        "BitsAllocated": 16,
        "BitsStored": 12,
        "BodyPartExamined": "HEAD",
        "Columns": 384,
        "DeidentificationMethodCodeSequence": [
          {
            "CodeMeaning": "XNAT Edit Script",
            "CodeValue": "625500",
            "CodingSchemeDesignator": "XNAT",
            "CodingSchemeVersion": "0.1"
          }
        ],
        "EchoNumbers": 1,
        "EchoTime": 27.0,
        "EchoTrainLength": 1,
        "FlipAngle": 90.0,
        "HighBit": 11,
        "ImageOrientationPatient": [
          0.99183241259373,
          -0.0890507476061,
          -0.0913150024875,
          0.10446081326655,
          0.97793175501155,
          0.18093485300439
        ],
        "ImagePositionPatient": [
          -849.49155281119,
          -664.24003949918,
          -93.359896011769
        ],
        "ImageType": [
          "ORIGINAL",
          "PRIMARY",
          "M",
          "ND",
          "NORM",
          "MOSAIC"
        ],
        "ImagedNucleus": "1H",
        "ImagingFrequency": 123.255905,
        "InPlanePhaseEncodingDirection": "COL",
        "MRAcquisitionType": "2D",
        "MagneticFieldStrength": 3.0,
        "Manufacturer": "SIEMENS",
        "ManufacturerModelName": "TrioTim",
        "Modality": "MR",
        "NumberOfAverages": 1.0,
        "NumberOfPhaseEncodingSteps": 64,
        "PercentPhaseFieldOfView": 100.0,
        "PercentSampling": 100.0,
        "PerformedProcedureStepStartTime": "135658.187000",
        "PhotometricInterpretation": "MONOCHROME2",
        "PixelBandwidth": 1905.0,
        "PixelRepresentation": 0,
        "PixelSpacing": [
          4.0,
          4.0
        ],
        "PositionReferenceIndicator": "",
        "ProtocolName": "ep2d_bold_ad_movie_2B",
        "RepetitionTime": 2500.0,
        "Rows": 384,
        "SAR": 0.13718380758672,
        "SamplesPerPixel": 1,
        "ScanOptions": "FS",
        "ScanningSequence": "EP",
        "SequenceName": "*epfid2d1_64",
        "SequenceVariant": "SK",
        "SeriesDescription": "ep2d_bold_ad_movie_2B",
        "SeriesNumber": 13,
        "SeriesTime": "145323.078000",
        "SliceLocation": -28.055860470488,
        "SliceThickness": 4.0,
        "SmallestImagePixelValue": 0,
        "SoftwareVersions": "syngo MR B17",
        "SpacingBetweenSlices": 4.0000020488028,
        "SpecificCharacterSet": "ISO_IR 100",
        "StudyID": "1",
        "StudyTime": "135658.140000",
        "TransmitCoilName": "Body",
        "VariableFlipAngleFlag": "N",
        "WindowCenterWidthExplanation": "Algo1",
        "dBdt": 0.0
      },
      "slices": {}
    },
    "modality": "bold",
    "subject_id": "CTS211",
    "task_id": "restmovieadaptive",
    "time": {
      "samples": {
        "AcquisitionNumber": [
          1,
          2,
          3,
          4,
          5,
          6,
          7,
          8,
          9,
          10,
          11,
          12,
          13,
          14,
          15,
          16,
          17,
          18,
          19,
          20,
          21,
          22,
          23,
          24,
          25,
          26,
          27,
          28,
          29,
          30,
          31,
          32,
          33,
          34,
          35,
          36,
          37,
          38,
          39,
          40,
          41,
          42,
          43,
          44,
          45,
          46,
          47,
          48,
          49,
          50,
          51,
          52,
          53,
          54,
          55,
          56,
          57,
          58,
          59,
          60,
          61,
          62,
          63,
          64,
          65,
          66,
          67,
          68,
          69,
          70,
          71,
          72,
          73,
          74,
          75,
          76,
          77,
          78,
          79,
          80,
          81,
          82,
          83,
          84,
          85,
          86,
          87,
          88,
          89,
          90,
          91,
          92,
          93,
          94,
          95,
          96,
          97,
          98,
          99,
          100,
          101,
          102,
          103,
          104,
          105,
          106,
          107,
          108,
          109,
          110,
          111,
          112,
          113,
          114,
          115,
          116,
          117,
          118,
          119,
          120,
          121,
          122,
          123,
          124,
          125,
          126,
          127,
          128,
          129,
          130,
          131,
          132,
          133,
          134,
          135,
          136,
          137,
          138,
          139,
          140,
          141,
          142,
          143,
          144,
          145,
          146,
          147,
          148,
          149,
          150,
          151,
          152,
          153,
          154,
          155,
          156,
          157,
          158,
          159,
          160,
          161,
          162,
          163,
          164
        ],
        "AcquisitionTime": [
          "145321.130000",
          "145323.640000",
          "145326.150000",
          "145328.660000",
          "145331.170000",
          "145333.680000",
          "145336.190000",
          "145338.700000",
          "145341.210000",
          "145343.720000",
          "145346.230000",
          "145348.740000",
          "145351.250000",
          "145353.760000",
          "145356.270000",
          "145358.780000",
          "145401.290000",
          "145403.800000",
          "145406.310000",
          "145408.820000",
          "145411.330000",
          "145413.840000",
          "145416.350000",
          "145418.860000",
          "145421.370000",
          "145423.880000",
          "145426.390000",
          "145428.900000",
          "145431.410000",
          "145433.920000",
          "145436.430000",
          "145438.940000",
          "145441.450000",
          "145443.960000",
          "145446.470000",
          "145448.980000",
          "145451.490000",
          "145454.000000",
          "145456.510000",
          "145459.020000",
          "145501.530000",
          "145504.040000",
          "145506.550000",
          "145509.060000",
          "145511.570000",
          "145514.082500",
          "145516.592500",
          "145519.102500",
          "145521.612500",
          "145524.122500",
          "145526.632500",
          "145529.142500",
          "145531.652500",
          "145534.162500",
          "145536.672500",
          "145539.182500",
          "145541.692500",
          "145544.202500",
          "145546.712500",
          "145549.222500",
          "145551.732500",
          "145554.242500",
          "145556.752500",
          "145559.262500",
          "145601.772500",
          "145604.282500",
          "145606.792500",
          "145609.302500",
          "145611.812500",
          "145614.322500",
          "145616.832500",
          "145619.342500",
          "145621.852500",
          "145624.362500",
          "145626.872500",
          "145629.382500",
          "145631.892500",
          "145634.402500",
          "145636.912500",
          "145639.422500",
          "145641.932500",
          "145644.442500",
          "145646.952500",
          "145649.462500",
          "145651.972500",
          "145654.482500",
          "145656.992500",
          "145659.502500",
          "145702.012500",
          "145704.522500",
          "145707.032500",
          "145709.542500",
          "145712.052500",
          "145714.562500",
          "145717.072500",
          "145719.582500",
          "145722.092500",
          "145724.602500",
          "145727.112500",
          "145729.622500",
          "145732.132500",
          "145734.642500",
          "145737.152500",
          "145739.662500",
          "145742.172500",
          "145744.682500",
          "145747.192500",
          "145749.705000",
          "145752.215000",
          "145754.725000",
          "145757.235000",
          "145759.745000",
          "145802.255000",
          "145804.765000",
          "145807.275000",
          "145809.785000",
          "145812.295000",
          "145814.805000",
          "145817.315000",
          "145819.825000",
          "145822.335000",
          "145824.845000",
          "145827.355000",
          "145829.865000",
          "145832.375000",
          "145834.885000",
          "145837.395000",
          "145839.905000",
          "145842.415000",
          "145844.925000",
          "145847.435000",
          "145849.945000",
          "145852.455000",
          "145854.965000",
          "145857.475000",
          "145859.985000",
          "145902.495000",
          "145905.005000",
          "145907.515000",
          "145910.025000",
          "145912.535000",
          "145915.045000",
          "145917.555000",
          "145920.065000",
          "145922.575000",
          "145925.085000",
          "145927.595000",
          "145930.105000",
          "145932.615000",
          "145935.125000",
          "145937.635000",
          "145940.145000",
          "145942.655000",
          "145945.165000",
          "145947.675000",
          "145950.185000",
          "145952.695000",
          "145955.205000",
          "145957.715000",
          "150000.225000",
          "150002.735000",
          "150005.245000",
          "150007.755000",
          "150010.265000"
        ],
        "ContentTime": [
          "145323.078000",
          "145325.578000",
          "145328.078000",
          "145330.578000",
          "145333.078000",
          "145335.578000",
          "145338.078000",
          "145340.578000",
          "145343.078000",
          "145345.578000",
          "145348.078000",
          "145350.578000",
          "145353.078000",
          "145355.578000",
          "145358.078000",
          "145400.578000",
          "145403.078000",
          "145405.578000",
          "145408.078000",
          "145410.578000",
          "145413.078000",
          "145415.578000",
          "145418.078000",
          "145420.578000",
          "145423.078000",
          "145425.578000",
          "145428.078000",
          "145430.578000",
          "145433.078000",
          "145435.578000",
          "145438.078000",
          "145440.578000",
          "145443.078000",
          "145445.578000",
          "145448.078000",
          "145450.578000",
          "145453.078000",
          "145455.578000",
          "145458.078000",
          "145500.578000",
          "145503.078000",
          "145505.578000",
          "145508.078000",
          "145510.578000",
          "145513.078000",
          "145515.578000",
          "145518.078000",
          "145520.578000",
          "145523.078000",
          "145525.578000",
          "145528.078000",
          "145530.578000",
          "145533.078000",
          "145535.578000",
          "145538.078000",
          "145540.578000",
          "145543.078000",
          "145545.578000",
          "145548.078000",
          "145550.578000",
          "145553.078000",
          "145555.578000",
          "145558.078000",
          "145600.578000",
          "145603.078000",
          "145605.578000",
          "145608.078000",
          "145610.578000",
          "145613.078000",
          "145615.578000",
          "145618.078000",
          "145620.578000",
          "145623.078000",
          "145625.578000",
          "145628.078000",
          "145630.578000",
          "145633.078000",
          "145635.578000",
          "145638.078000",
          "145640.578000",
          "145643.078000",
          "145645.578000",
          "145648.078000",
          "145650.578000",
          "145653.078000",
          "145655.578000",
          "145658.078000",
          "145700.578000",
          "145703.078000",
          "145705.578000",
          "145708.078000",
          "145710.578000",
          "145713.078000",
          "145715.578000",
          "145718.078000",
          "145720.578000",
          "145723.078000",
          "145725.578000",
          "145728.078000",
          "145730.578000",
          "145733.078000",
          "145735.578000",
          "145738.078000",
          "145740.578000",
          "145743.078000",
          "145745.578000",
          "145748.078000",
          "145750.578000",
          "145753.078000",
          "145755.578000",
          "145758.078000",
          "145800.578000",
          "145803.078000",
          "145805.578000",
          "145808.078000",
          "145810.578000",
          "145813.078000",
          "145815.578000",
          "145818.078000",
          "145820.578000",
          "145823.078000",
          "145825.578000",
          "145828.078000",
          "145830.578000",
          "145833.078000",
          "145835.578000",
          "145838.078000",
          "145840.578000",
          "145843.078000",
          "145845.578000",
          "145848.078000",
          "145850.578000",
          "145853.078000",
          "145855.578000",
          "145858.078000",
          "145900.578000",
          "145903.078000",
          "145905.578000",
          "145908.078000",
          "145910.578000",
          "145913.078000",
          "145915.578000",
          "145918.078000",
          "145920.578000",
          "145923.078000",
          "145925.578000",
          "145928.078000",
          "145930.578000",
          "145933.078000",
          "145935.578000",
          "145938.078000",
          "145940.578000",
          "145943.078000",
          "145945.578000",
          "145948.078000",
          "145950.578000",
          "145953.078000",
          "145955.578000",
          "145958.078000",
          "150000.578000",
          "150003.078000",
          "150005.578000",
          "150008.078000",
          "150010.453000"
        ],
        "InstanceCreationTime": [
          "145323.078000",
          "145325.578000",
          "145328.078000",
          "145330.578000",
          "145333.078000",
          "145335.578000",
          "145338.078000",
          "145340.578000",
          "145343.078000",
          "145345.578000",
          "145348.078000",
          "145350.578000",
          "145353.078000",
          "145355.578000",
          "145358.078000",
          "145400.578000",
          "145403.078000",
          "145405.578000",
          "145408.078000",
          "145410.578000",
          "145413.078000",
          "145415.578000",
          "145418.078000",
          "145420.578000",
          "145423.078000",
          "145425.578000",
          "145428.078000",
          "145430.578000",
          "145433.078000",
          "145435.578000",
          "145438.078000",
          "145440.578000",
          "145443.078000",
          "145445.578000",
          "145448.078000",
          "145450.578000",
          "145453.078000",
          "145455.578000",
          "145458.078000",
          "145500.578000",
          "145503.078000",
          "145505.578000",
          "145508.078000",
          "145510.578000",
          "145513.078000",
          "145515.578000",
          "145518.078000",
          "145520.578000",
          "145523.078000",
          "145525.578000",
          "145528.078000",
          "145530.578000",
          "145533.078000",
          "145535.578000",
          "145538.078000",
          "145540.578000",
          "145543.078000",
          "145545.578000",
          "145548.078000",
          "145550.578000",
          "145553.078000",
          "145555.578000",
          "145558.078000",
          "145600.578000",
          "145603.078000",
          "145605.578000",
          "145608.078000",
          "145610.578000",
          "145613.078000",
          "145615.578000",
          "145618.078000",
          "145620.578000",
          "145623.078000",
          "145625.578000",
          "145628.078000",
          "145630.578000",
          "145633.078000",
          "145635.578000",
          "145638.078000",
          "145640.578000",
          "145643.078000",
          "145645.578000",
          "145648.078000",
          "145650.578000",
          "145653.078000",
          "145655.578000",
          "145658.078000",
          "145700.578000",
          "145703.078000",
          "145705.578000",
          "145708.078000",
          "145710.578000",
          "145713.078000",
          "145715.578000",
          "145718.078000",
          "145720.578000",
          "145723.078000",
          "145725.578000",
          "145728.078000",
          "145730.578000",
          "145733.078000",
          "145735.578000",
          "145738.078000",
          "145740.578000",
          "145743.078000",
          "145745.578000",
          "145748.078000",
          "145750.578000",
          "145753.078000",
          "145755.578000",
          "145758.078000",
          "145800.578000",
          "145803.078000",
          "145805.578000",
          "145808.078000",
          "145810.578000",
          "145813.078000",
          "145815.578000",
          "145818.078000",
          "145820.578000",
          "145823.078000",
          "145825.578000",
          "145828.078000",
          "145830.578000",
          "145833.078000",
          "145835.578000",
          "145838.078000",
          "145840.578000",
          "145843.078000",
          "145845.578000",
          "145848.078000",
          "145850.578000",
          "145853.078000",
          "145855.578000",
          "145858.078000",
          "145900.578000",
          "145903.078000",
          "145905.578000",
          "145908.078000",
          "145910.578000",
          "145913.078000",
          "145915.578000",
          "145918.078000",
          "145920.578000",
          "145923.078000",
          "145925.578000",
          "145928.078000",
          "145930.578000",
          "145933.078000",
          "145935.578000",
          "145938.078000",
          "145940.578000",
          "145943.078000",
          "145945.578000",
          "145948.078000",
          "145950.578000",
          "145953.078000",
          "145955.578000",
          "145958.078000",
          "150000.578000",
          "150003.078000",
          "150005.578000",
          "150008.078000",
          "150010.453000"
        ],
        "InstanceNumber": [
          1,
          2,
          3,
          4,
          5,
          6,
          7,
          8,
          9,
          10,
          11,
          12,
          13,
          14,
          15,
          16,
          17,
          18,
          19,
          20,
          21,
          22,
          23,
          24,
          25,
          26,
          27,
          28,
          29,
          30,
          31,
          32,
          33,
          34,
          35,
          36,
          37,
          38,
          39,
          40,
          41,
          42,
          43,
          44,
          45,
          46,
          47,
          48,
          49,
          50,
          51,
          52,
          53,
          54,
          55,
          56,
          57,
          58,
          59,
          60,
          61,
          62,
          63,
          64,
          65,
          66,
          67,
          68,
          69,
          70,
          71,
          72,
          73,
          74,
          75,
          76,
          77,
          78,
          79,
          80,
          81,
          82,
          83,
          84,
          85,
          86,
          87,
          88,
          89,
          90,
          91,
          92,
          93,
          94,
          95,
          96,
          97,
          98,
          99,
          100,
          101,
          102,
          103,
          104,
          105,
          106,
          107,
          108,
          109,
          110,
          111,
          112,
          113,
          114,
          115,
          116,
          117,
          118,
          119,
          120,
          121,
          122,
          123,
          124,
          125,
          126,
          127,
          128,
          129,
          130,
          131,
          132,
          133,
          134,
          135,
          136,
          137,
          138,
          139,
          140,
          141,
          142,
          143,
          144,
          145,
          146,
          147,
          148,
          149,
          150,
          151,
          152,
          153,
          154,
          155,
          156,
          157,
          158,
          159,
          160,
          161,
          162,
          163,
          164
        ],
        "LargestImagePixelValue": [
          1358,
          1362,
          1373,
          1367,
          1367,
          1412,
          1364,
          1354,
          1399,
          1390,
          1379,
          1370,
          1386,
          1416,
          1393,
          1384,
          1367,
          1394,
          1413,
          1393,
          1382,
          1406,
          1353,
          1402,
          1396,
          1359,
          1387,
          1363,
          1355,
          1389,
          1379,
          1430,
          1398,
          1378,
          1376,
          1389,
          1388,
          1379,
          1391,
          1364,
          1309,
          1355,
          1342,
          1397,
          1386,
          1363,
          1400,
          1370,
          1399,
          1379,
          1365,
          1406,
          1385,
          1347,
          1391,
          1353,
          1354,
          1360,
          1427,
          1374,
          1375,
          1383,
          1371,
          1373,
          1397,
          1361,
          1350,
          1440,
          1358,
          1400,
          1351,
          1349,
          1378,
          1340,
          1350,
          1361,
          1329,
          1349,
          1355,
          1454,
          1377,
          1504,
          1329,
          1350,
          1369,
          1386,
          1362,
          1374,
          1431,
          1346,
          1380,
          1392,
          1358,
          1392,
          1353,
          1388,
          1363,
          1373,
          1464,
          1340,
          1375,
          1380,
          1302,
          1358,
          1363,
          1343,
          1345,
          1359,
          1409,
          1381,
          1369,
          1368,
          1366,
          1343,
          1362,
          1364,
          1393,
          1394,
          1397,
          1384,
          1369,
          1345,
          1345,
          1366,
          1358,
          1337,
          1351,
          1373,
          1361,
          1365,
          1362,
          1357,
          1385,
          1339,
          1387,
          1348,
          1345,
          1334,
          1343,
          1343,
          1363,
          1379,
          1373,
          1375,
          1368,
          1360,
          1310,
          1386,
          1360,
          1387,
          1388,
          1341,
          1392,
          1408,
          1320,
          1419,
          1324,
          1387,
          1364,
          1336,
          1345,
          1386,
          1342,
          1355
        ],
        "WindowCenter": [
          631.0,
          631.0,
          631.0,
          633.0,
          632.0,
          631.0,
          632.0,
          630.0,
          633.0,
          633.0,
          635.0,
          635.0,
          633.0,
          632.0,
          631.0,
          633.0,
          632.0,
          633.0,
          634.0,
          633.0,
          633.0,
          633.0,
          632.0,
          632.0,
          633.0,
          633.0,
          633.0,
          632.0,
          630.0,
          633.0,
          634.0,
          631.0,
          632.0,
          633.0,
          631.0,
          632.0,
          631.0,
          630.0,
          631.0,
          631.0,
          630.0,
          632.0,
          630.0,
          631.0,
          633.0,
          630.0,
          632.0,
          633.0,
          633.0,
          633.0,
          630.0,
          632.0,
          632.0,
          633.0,
          631.0,
          631.0,
          632.0,
          633.0,
          633.0,
          633.0,
          632.0,
          633.0,
          634.0,
          631.0,
          631.0,
          631.0,
          630.0,
          632.0,
          632.0,
          633.0,
          632.0,
          632.0,
          633.0,
          632.0,
          631.0,
          633.0,
          631.0,
          633.0,
          633.0,
          631.0,
          631.0,
          631.0,
          630.0,
          632.0,
          633.0,
          630.0,
          631.0,
          631.0,
          630.0,
          630.0,
          631.0,
          632.0,
          630.0,
          630.0,
          632.0,
          632.0,
          631.0,
          631.0,
          632.0,
          630.0,
          630.0,
          632.0,
          630.0,
          630.0,
          635.0,
          633.0,
          632.0,
          632.0,
          631.0,
          634.0,
          630.0,
          630.0,
          632.0,
          631.0,
          633.0,
          633.0,
          632.0,
          632.0,
          631.0,
          631.0,
          632.0,
          630.0,
          632.0,
          631.0,
          629.0,
          632.0,
          631.0,
          628.0,
          631.0,
          632.0,
          631.0,
          630.0,
          631.0,
          633.0,
          633.0,
          632.0,
          630.0,
          630.0,
          629.0,
          630.0,
          630.0,
          630.0,
          631.0,
          631.0,
          631.0,
          632.0,
          631.0,
          631.0,
          632.0,
