{
  "aor": 0.0017193292682926833,
  "aqi": 0.00319043506097561,
  "bids_meta": {
    "AcquisitionMatrixPE": 64,
    "AcquisitionNumber": 1,
    "AcquisitionTime": "15:01:22.227500",
    "BandwidthPerPixelPhaseEncode": 26.483,
    "BaseResolution": 64,
    "BodyPartExamined": "HEAD",
    "CogAtlasID": "TODO",
    "ConversionSoftware": "dcm2niix",
    "ConversionSoftwareVersion": "v1.0.20171017 GCC6.3.0",
    "DerivedVendorReportedEchoSpacing": 0.000590001,
    "DeviceSerialNumber": "35177",
    "DwellTime": 4.1e-06,
    "EchoTime": 0.027,
    "EffectiveEchoSpacing": 0.000590001,
    "FlipAngle": 90,
    "ImageOrientationPatientDICOM": [
      0.991832,
      -0.0890507,
      -0.091315,
      0.104461,
      0.977932,
      0.180935
    ],
    "ImageType": [
      "ORIGINAL",
      "PRIMARY",
      "M",
      "ND",
      "NORM",
      "MOSAIC"
    ],
    "InPlanePhaseEncodingDirectionDICOM": "COL",
    "InstitutionAddress": "Scott_Ave._4525_St._Louis_MO_US_63110",
    "InstitutionName": "Washington_University",
    "InstitutionalDepartmentName": "Department",
    "MRAcquisitionType": "2D",
    "MagneticFieldStrength": 3,
    "Manufacturer": "Siemens",
    "ManufacturersModelName": "TrioTim",
    "Modality": "MR",
    "PartialFourier": 1,
    "PatientPosition": "HFS",
    "PercentPhaseFOV": 100,
    "PhaseEncodingDirection": "j-",
    "PhaseEncodingSteps": 64,
    "PhaseResolution": 1,
    "PixelBandwidth": 1905,
    "ProcedureStepDescription": "head_GREENE",
    "ProtocolName": "ep2d_bold_movie_rest_3C",
    "PulseSequenceDetails": "%SiemensSeq%_ep2d_bold",
    "ReceiveCoilName": "HeadMatrix",
    "ReconMatrixPE": 64,
    "RepetitionTime": 2.5,
    "SAR": 0.137184,
    "ScanOptions": "FS",
    "ScanningSequence": "EP",
    "SequenceName": "_epfid2d1_64",
    "SequenceVariant": "SK",
    "SeriesDescription": "ep2d_bold_movie_rest_3C",
    "SeriesNumber": 14,
    "ShimSetting": [
      -282,
      -19604,
      7935,
      122,
      130,
      -777,
      305,
      50
    ],
    "SliceThickness": 4,
    "SliceTiming": [
      1.255,
      0,
      1.3325,
      0.0775,
      1.4125,
      0.1575,
      1.49,
      0.235,
      1.5675,
      0.3125,
      1.6475,
      0.3925,
      1.725,
      0.47,
      1.805,
      0.55,
      1.8825,
      0.6275,
      1.96,
      0.705,
      2.04,
      0.785,
      2.1175,
      0.8625,
      2.195,
      0.94,
      2.275,
      1.02,
      2.3525,
      1.0975,
      2.43,
      1.1775
    ],
    "SoftwareVersions": "syngo_MR_B17",
    "SpacingBetweenSlices": 4,
    "StationName": "MRC35177",
    "TaskName": "restmovienofeedback",
    "TotalReadoutTime": 0.0371701,
    "TxRefAmp": 344.841,
    "dataset": "ds000256",
    "dcmmeta_affine": [
      [
        -3.967329740524292,
        0.4178432524204254,
        -0.29274997115135193,
        121.53976440429688
      ],
      [
        0.35620298981666565,
        3.911726951599121,
        0.7559839487075806,
        -151.08261108398438
      ],
      [
        -0.3652600049972534,
        -0.7237393856048584,
        3.9169888496398926,
        9.592391014099121
      ],
      [
        0.0,
        0.0,
        0.0,
        1.0
      ]
    ],
    "dcmmeta_reorient_transform": [
      [
        0.0,
        -1.0,
        0.0,
        63.0
      ],
      [
        1.0,
        0.0,
        0.0,
        0.0
      ],
      [
        0.0,
        0.0,
        1.0,
        0.0
      ],
      [
        0.0,
        0.0,
        0.0,
        1.0
      ]
    ],
    "dcmmeta_shape": [
      64,
      64,
      32,
      164
    ],
    "dcmmeta_slice_dim": 2,
    "dcmmeta_version": 0.6,
    "global": {
      "const": {
        "AccessionNumber": ".",
        "AcquisitionMatrix": [
          64,
          0,
          0,
          64
        ],
        "AngioFlag": "N",
        "BitsAllocated": 16,
        "BitsStored": 12,
        "BodyPartExamined": "HEAD",
        "Columns": 384,
        "DeidentificationMethodCodeSequence": [
          {
            "CodeMeaning": "XNAT Edit Script",
            "CodeValue": "625500",
            "CodingSchemeDesignator": "XNAT",
            "CodingSchemeVersion": "0.1"
          }
        ],
        "EchoNumbers": 1,
        "EchoTime": 27.0,
        "EchoTrainLength": 1,
        "FlipAngle": 90.0,
        "HighBit": 11,
        "ImageOrientationPatient": [
          0.99183241259373,
          -0.0890507476061,
          -0.0913150024875,
          0.10446081326655,
          0.97793175501155,
          0.18093485300439
        ],
        "ImagePositionPatient": [
          -849.49155281119,
          -664.24003949918,
          -93.359896011769
        ],
        "ImageType": [
          "ORIGINAL",
          "PRIMARY",
          "M",
          "ND",
          "NORM",
          "MOSAIC"
        ],
        "ImagedNucleus": "1H",
        "ImagingFrequency": 123.255904,
        "InPlanePhaseEncodingDirection": "COL",
        "MRAcquisitionType": "2D",
        "MagneticFieldStrength": 3.0,
        "Manufacturer": "SIEMENS",
        "ManufacturerModelName": "TrioTim",
        "Modality": "MR",
        "NumberOfAverages": 1.0,
        "NumberOfPhaseEncodingSteps": 64,
        "PercentPhaseFieldOfView": 100.0,
        "PercentSampling": 100.0,
        "PerformedProcedureStepStartTime": "135658.187000",
        "PhotometricInterpretation": "MONOCHROME2",
        "PixelBandwidth": 1905.0,
        "PixelRepresentation": 0,
        "PixelSpacing": [
          4.0,
          4.0
        ],
        "PositionReferenceIndicator": "",
        "ProtocolName": "ep2d_bold_movie_rest_3C",
        "RepetitionTime": 2500.0,
        "Rows": 384,
        "SAR": 0.13718380758672,
        "SamplesPerPixel": 1,
        "ScanOptions": "FS",
        "ScanningSequence": "EP",
        "SequenceName": "*epfid2d1_64",
        "SequenceVariant": "SK",
        "SeriesDescription": "ep2d_bold_movie_rest_3C",
        "SeriesNumber": 14,
        "SeriesTime": "150124.734000",
        "SliceLocation": -28.055860470488,
        "SliceThickness": 4.0,
        "SmallestImagePixelValue": 0,
        "SoftwareVersions": "syngo MR B17",
        "SpacingBetweenSlices": 4.0000020488028,
        "SpecificCharacterSet": "ISO_IR 100",
        "StudyID": "1",
        "StudyTime": "135658.140000",
        "TransmitCoilName": "Body",
        "VariableFlipAngleFlag": "N",
        "WindowCenterWidthExplanation": "Algo1",
        "dBdt": 0.0
      },
      "slices": {}
    },
    "modality": "bold",
    "subject_id": "CTS211",
    "task_id": "restmovienofeedback",
    "time": {
      "samples": {
        "AcquisitionNumber": [
          1,
          2,
          3,
          4,
          5,
          6,
          7,
          8,
          9,
          10,
          11,
          12,
          13,
          14,
          15,
          16,
          17,
          18,
          19,
          20,
          21,
          22,
          23,
          24,
          25,
          26,
          27,
          28,
          29,
          30,
          31,
          32,
          33,
          34,
          35,
          36,
          37,
          38,
          39,
          40,
          41,
          42,
          43,
          44,
          45,
          46,
          47,
          48,
          49,
          50,
          51,
          52,
          53,
          54,
          55,
          56,
          57,
          58,
          59,
          60,
          61,
          62,
          63,
          64,
          65,
          66,
          67,
          68,
          69,
          70,
          71,
          72,
          73,
          74,
          75,
          76,
          77,
          78,
          79,
          80,
          81,
          82,
          83,
          84,
          85,
          86,
          87,
          88,
          89,
          90,
          91,
          92,
          93,
          94,
          95,
          96,
          97,
          98,
          99,
          100,
          101,
          102,
          103,
          104,
          105,
          106,
          107,
          108,
          109,
          110,
          111,
          112,
          113,
          114,
          115,
          116,
          117,
          118,
          119,
          120,
          121,
          122,
          123,
          124,
          125,
          126,
          127,
          128,
          129,
          130,
          131,
          132,
          133,
          134,
          135,
          136,
          137,
          138,
          139,
          140,
          141,
          142,
          143,
          144,
          145,
          146,
          147,
          148,
          149,
          150,
          151,
          152,
          153,
          154,
          155,
          156,
          157,
          158,
          159,
          160,
          161,
          162,
          163,
          164
        ],
        "AcquisitionTime": [
          "150122.227500",
          "150124.737500",
          "150127.247500",
          "150129.757500",
          "150132.267500",
          "150134.777500",
          "150137.287500",
          "150139.797500",
          "150142.307500",
          "150144.817500",
          "150147.327500",
          "150149.837500",
          "150152.347500",
          "150154.857500",
          "150157.367500",
          "150159.877500",
          "150202.387500",
          "150204.897500",
          "150207.407500",
          "150209.917500",
          "150212.427500",
          "150214.937500",
          "150217.447500",
          "150219.957500",
          "150222.467500",
          "150224.977500",
          "150227.487500",
          "150229.997500",
          "150232.507500",
          "150235.017500",
          "150237.527500",
          "150240.037500",
          "150242.547500",
          "150245.057500",
          "150247.567500",
          "150250.077500",
          "150252.590000",
          "150255.100000",
          "150257.610000",
          "150300.120000",
          "150302.630000",
          "150305.140000",
          "150307.650000",
          "150310.160000",
          "150312.670000",
          "150315.180000",
          "150317.690000",
          "150320.200000",
          "150322.710000",
          "150325.220000",
          "150327.730000",
          "150330.240000",
          "150332.750000",
          "150335.260000",
          "150337.770000",
          "150340.280000",
          "150342.790000",
          "150345.300000",
          "150347.810000",
          "150350.320000",
          "150352.830000",
          "150355.340000",
          "150357.850000",
          "150400.360000",
          "150402.870000",
          "150405.380000",
          "150407.890000",
          "150410.400000",
          "150412.910000",
          "150415.420000",
          "150417.930000",
          "150420.440000",
          "150422.950000",
          "150425.460000",
          "150427.970000",
          "150430.480000",
          "150432.990000",
          "150435.500000",
          "150438.010000",
          "150440.520000",
          "150443.030000",
          "150445.540000",
          "150448.050000",
          "150450.560000",
          "150453.070000",
          "150455.580000",
          "150458.090000",
          "150500.600000",
          "150503.110000",
          "150505.620000",
          "150508.130000",
          "150510.640000",
          "150513.150000",
          "150515.660000",
          "150518.170000",
          "150520.680000",
          "150523.190000",
          "150525.700000",
          "150528.210000",
          "150530.722500",
          "150533.232500",
          "150535.742500",
          "150538.252500",
          "150540.762500",
          "150543.272500",
          "150545.782500",
          "150548.292500",
          "150550.802500",
          "150553.312500",
          "150555.822500",
          "150558.332500",
          "150600.842500",
          "150603.352500",
          "150605.862500",
          "150608.372500",
          "150610.882500",
          "150613.392500",
          "150615.902500",
          "150618.412500",
          "150620.922500",
          "150623.432500",
          "150625.942500",
          "150628.452500",
          "150630.962500",
          "150633.472500",
          "150635.982500",
          "150638.492500",
          "150641.002500",
          "150643.512500",
          "150646.022500",
          "150648.532500",
          "150651.042500",
          "150653.552500",
          "150656.062500",
          "150658.572500",
          "150701.082500",
          "150703.592500",
          "150706.102500",
          "150708.612500",
          "150711.122500",
          "150713.632500",
          "150716.142500",
          "150718.652500",
          "150721.162500",
          "150723.672500",
          "150726.182500",
          "150728.692500",
          "150731.202500",
          "150733.712500",
          "150736.222500",
          "150738.732500",
          "150741.242500",
          "150743.752500",
          "150746.262500",
          "150748.772500",
          "150751.282500",
          "150753.792500",
          "150756.302500",
          "150758.812500",
          "150801.322500",
          "150803.832500",
          "150806.345000",
          "150808.855000",
          "150811.365000"
        ],
        "ContentTime": [
          "150124.734000",
          "150127.234000",
          "150129.734000",
          "150132.234000",
          "150134.734000",
          "150137.234000",
          "150139.734000",
          "150142.234000",
          "150144.734000",
          "150147.234000",
          "150149.734000",
          "150152.234000",
          "150154.734000",
          "150157.234000",
          "150159.734000",
          "150202.234000",
          "150204.734000",
          "150207.234000",
          "150209.734000",
          "150212.234000",
          "150214.734000",
          "150217.234000",
          "150219.734000",
          "150222.234000",
          "150224.734000",
          "150227.234000",
          "150229.734000",
          "150232.234000",
          "150234.734000",
          "150237.234000",
          "150239.734000",
          "150242.234000",
          "150244.734000",
          "150247.234000",
          "150249.734000",
          "150252.234000",
          "150254.734000",
          "150257.234000",
          "150259.734000",
          "150302.234000",
          "150304.734000",
          "150307.234000",
          "150309.734000",
          "150312.234000",
          "150314.734000",
          "150317.234000",
          "150319.734000",
          "150322.234000",
          "150324.734000",
          "150327.234000",
          "150329.734000",
          "150332.234000",
          "150334.734000",
          "150337.234000",
          "150339.734000",
          "150342.234000",
          "150344.734000",
          "150347.234000",
          "150349.734000",
          "150352.234000",
          "150354.734000",
          "150357.234000",
          "150359.734000",
          "150402.234000",
          "150404.734000",
          "150407.234000",
          "150409.734000",
          "150412.234000",
          "150414.734000",
          "150417.234000",
          "150419.734000",
          "150422.234000",
          "150424.734000",
          "150427.234000",
          "150429.734000",
          "150432.234000",
          "150434.734000",
          "150437.234000",
          "150439.734000",
          "150442.234000",
          "150444.734000",
          "150447.234000",
          "150449.734000",
          "150452.234000",
          "150454.734000",
          "150457.234000",
          "150459.734000",
          "150502.234000",
          "150504.734000",
          "150507.234000",
          "150509.734000",
          "150512.234000",
          "150514.734000",
          "150517.234000",
          "150519.734000",
          "150522.234000",
          "150524.734000",
          "150527.234000",
          "150529.734000",
          "150532.234000",
          "150534.734000",
          "150537.234000",
          "150539.734000",
          "150542.234000",
          "150544.734000",
          "150547.234000",
          "150549.734000",
          "150552.234000",
          "150554.734000",
          "150557.234000",
          "150559.734000",
          "150602.234000",
          "150604.734000",
          "150607.234000",
          "150609.734000",
          "150612.234000",
          "150614.734000",
          "150617.234000",
          "150619.734000",
          "150622.234000",
          "150624.734000",
          "150627.234000",
          "150629.734000",
          "150632.234000",
          "150634.734000",
          "150637.234000",
          "150639.734000",
          "150642.234000",
          "150644.734000",
          "150647.234000",
          "150649.734000",
          "150652.234000",
          "150654.734000",
          "150657.234000",
          "150659.734000",
          "150702.234000",
          "150704.734000",
          "150707.234000",
          "150709.734000",
          "150712.234000",
          "150714.734000",
          "150717.234000",
          "150719.734000",
          "150722.234000",
          "150724.734000",
          "150727.234000",
          "150729.734000",
          "150732.234000",
          "150734.734000",
          "150737.234000",
          "150739.734000",
          "150742.234000",
          "150744.734000",
          "150747.234000",
          "150749.734000",
          "150752.234000",
          "150754.734000",
          "150757.234000",
          "150759.734000",
          "150802.234000",
          "150804.734000",
          "150807.234000",
          "150809.734000",
          "150811.796000"
        ],
        "InstanceCreationTime": [
          "150124.734000",
          "150127.234000",
          "150129.734000",
          "150132.234000",
          "150134.734000",
          "150137.234000",
          "150139.734000",
          "150142.234000",
          "150144.734000",
          "150147.234000",
          "150149.734000",
          "150152.234000",
          "150154.734000",
          "150157.234000",
          "150159.734000",
          "150202.234000",
          "150204.734000",
          "150207.234000",
          "150209.734000",
          "150212.234000",
          "150214.734000",
          "150217.234000",
          "150219.734000",
          "150222.234000",
          "150224.734000",
          "150227.234000",
          "150229.734000",
          "150232.234000",
          "150234.734000",
          "150237.234000",
          "150239.734000",
          "150242.234000",
          "150244.734000",
          "150247.234000",
          "150249.734000",
          "150252.234000",
          "150254.734000",
          "150257.234000",
          "150259.734000",
          "150302.234000",
          "150304.734000",
          "150307.234000",
          "150309.734000",
          "150312.234000",
          "150314.734000",
          "150317.234000",
          "150319.734000",
          "150322.234000",
          "150324.734000",
          "150327.234000",
          "150329.734000",
          "150332.234000",
          "150334.734000",
          "150337.234000",
          "150339.734000",
          "150342.234000",
          "150344.734000",
          "150347.234000",
          "150349.734000",
          "150352.234000",
          "150354.734000",
          "150357.234000",
          "150359.734000",
          "150402.234000",
          "150404.734000",
          "150407.234000",
          "150409.734000",
          "150412.234000",
          "150414.734000",
          "150417.234000",
          "150419.734000",
          "150422.234000",
          "150424.734000",
          "150427.234000",
          "150429.734000",
          "150432.234000",
          "150434.734000",
          "150437.234000",
          "150439.734000",
          "150442.234000",
          "150444.734000",
          "150447.234000",
          "150449.734000",
          "150452.234000",
          "150454.734000",
          "150457.234000",
          "150459.734000",
          "150502.234000",
          "150504.734000",
          "150507.234000",
          "150509.734000",
          "150512.234000",
          "150514.734000",
          "150517.234000",
          "150519.734000",
          "150522.234000",
          "150524.734000",
          "150527.234000",
          "150529.734000",
          "150532.234000",
          "150534.734000",
          "150537.234000",
          "150539.734000",
          "150542.234000",
          "150544.734000",
          "150547.234000",
          "150549.734000",
          "150552.234000",
          "150554.734000",
          "150557.234000",
          "150559.734000",
          "150602.234000",
          "150604.734000",
          "150607.234000",
          "150609.734000",
          "150612.234000",
          "150614.734000",
          "150617.234000",
          "150619.734000",
          "150622.234000",
          "150624.734000",
          "150627.234000",
          "150629.734000",
          "150632.234000",
          "150634.734000",
          "150637.234000",
          "150639.734000",
          "150642.234000",
          "150644.734000",
          "150647.234000",
          "150649.734000",
          "150652.234000",
          "150654.734000",
          "150657.234000",
          "150659.734000",
          "150702.234000",
          "150704.734000",
          "150707.234000",
          "150709.734000",
          "150712.234000",
          "150714.734000",
          "150717.234000",
          "150719.734000",
          "150722.234000",
          "150724.734000",
          "150727.234000",
          "150729.734000",
          "150732.234000",
          "150734.734000",
          "150737.234000",
          "150739.734000",
          "150742.234000",
          "150744.734000",
          "150747.234000",
          "150749.734000",
          "150752.234000",
          "150754.734000",
          "150757.234000",
          "150759.734000",
          "150802.234000",
          "150804.734000",
          "150807.234000",
          "150809.734000",
          "150811.796000"
        ],
        "InstanceNumber": [
          1,
          2,
          3,
          4,
          5,
          6,
          7,
          8,
          9,
          10,
          11,
          12,
          13,
          14,
          15,
          16,
          17,
          18,
          19,
          20,
          21,
          22,
          23,
          24,
          25,
          26,
          27,
          28,
          29,
          30,
          31,
          32,
          33,
          34,
          35,
          36,
          37,
          38,
          39,
          40,
          41,
          42,
          43,
          44,
          45,
          46,
          47,
          48,
          49,
          50,
          51,
          52,
          53,
          54,
          55,
          56,
          57,
          58,
          59,
          60,
          61,
          62,
          63,
          64,
          65,
          66,
          67,
          68,
          69,
          70,
          71,
          72,
          73,
          74,
          75,
          76,
          77,
          78,
          79,
          80,
          81,
          82,
          83,
          84,
          85,
          86,
          87,
          88,
          89,
          90,
          91,
          92,
          93,
          94,
          95,
          96,
          97,
          98,
          99,
          100,
          101,
          102,
          103,
          104,
          105,
          106,
          107,
          108,
          109,
          110,
          111,
          112,
          113,
          114,
          115,
          116,
          117,
          118,
          119,
          120,
          121,
          122,
          123,
          124,
          125,
          126,
          127,
          128,
          129,
          130,
          131,
          132,
          133,
          134,
          135,
          136,
          137,
          138,
          139,
          140,
          141,
          142,
          143,
          144,
          145,
          146,
          147,
          148,
          149,
          150,
          151,
          152,
          153,
          154,
          155,
          156,
          157,
          158,
          159,
          160,
          161,
          162,
          163,
          164
        ],
        "LargestImagePixelValue": [
          1353,
          1332,
          1424,
          1361,
          1326,
          1346,
          1362,
          1350,
          1347,
          1417,
          1338,
          1337,
          1336,
          1344,
          1341,
          1363,
          1332,
          1335,
          1335,
          1361,
          1356,
          1450,
          1381,
          1345,
          1375,
          1336,
          1362,
          1400,
          1343,
          1350,
          1322,
          1350,
          1333,
          1420,
          1349,
          1390,
          1373,
          1332,
          1326,
          1339,
          1362,
          1357,
          1345,
          1352,
          1357,
          1382,
          1343,
          1431,
          1342,
          1348,
          1342,
          1332,
          1334,
          1325,
          1319,
          1361,
          1363,
          1307,
          1356,
          1471,
          1423,
          1333,
          1327,
          1301,
          1349,
          1352,
          1340,
          1345,
          1329,
          1326,
          1353,
          1436,
          1375,
          1338,
          1338,
          1368,
          1364,
          1324,
          1353,
          1354,
          1342,
          1327,
          1345,
          1354,
          1368,
          1348,
          1376,
          1443,
          1362,
          1352,
          1386,
          1356,
          1341,
          1313,
          1325,
          1350,
          1354,
          1377,
          1369,
          1341,
          1369,
          1331,
          1345,
          1342,
          1334,
          1323,
          1340,
          1370,
          1364,
          1337,
          1303,
          1415,
          1333,
          1357,
          1337,
          1321,
          1321,
          1358,
          1334,
          1320,
          1324,
          1327,
          1312,
          1368,
          1429,
          1374,
          1324,
          1336,
          1373,
          1313,
          1344,
          1353,
          1354,
          1364,
          1382,
          1335,
          1323,
          1328,
          1313,
          1349,
          1337,
          1355,
          1317,
          1335,
          1324,
          1336,
          1316,
          1333,
          1316,
          1337,
          1323,
          1321,
          1362,
          1348,
          1364,
          1395,
          1356,
          1343,
          1321,
          1335,
          1327,
          1309,
          1320,
          1505
        ],
        "WindowCenter": [
          632.0,
          632.0,
          633.0,
          633.0,
          632.0,
          633.0,
          632.0,
          630.0,
          632.0,
          632.0,
          630.0,
          631.0,
          633.0,
          630.0,
          631.0,
          633.0,
          632.0,
          632.0,
          632.0,
          632.0,
          632.0,
          631.0,
          633.0,
          632.0,
          632.0,
          632.0,
          633.0,
          633.0,
          632.0,
          630.0,
          632.0,
          634.0,
          632.0,
          632.0,
          630.0,
          632.0,
          632.0,
          631.0,
          630.0,
          630.0,
          632.0,
          634.0,
          632.0,
          632.0,
          632.0,
          632.0,
          633.0,
          632.0,
          632.0,
          633.0,
          633.0,
          630.0,
          629.0,
          628.0,
          632.0,
          632.0,
          633.0,
          633.0,
          631.0,
          632.0,
          631.0,
          632.0,
          630.0,
          631.0,
          631.0,
          632.0,
          630.0,
          632.0,
          632.0,
          631.0,
          633.0,
          632.0,
          633.0,
          632.0,
          632.0,
          633.0,
          632.0,
          632.0,
          632.0,
          634.0,
          633.0,
          630.0,
          633.0,
          632.0,
          630.0,
          633.0,
          632.0,
          632.0,
          632.0,
          631.0,
          631.0,
          631.0,
          633.0,
          631.0,
          632.0,
          631.0,
          634.0,
          633.0,
          629.0,
          630.0,
          633.0,
          631.0,
          632.0,
          631.0,
          633.0,
          633.0,
          634.0,
          631.0,
          632.0,
          632.0,
          632.0,
          632.0,
          632.0,
          631.0,
          629.0,
          632.0,
          632.0,
          633.0,
          632.0,
          630.0,
          631.0,
          630.0,
          633.0,
          632.0,
          632.0,
          631.0,
          633.0,
          634.0,
          631.0,
          633.0,
          633.0,
          632.0,
          634.0,
          631.0,
          632.0,
          632.0,
          630.0,
          630.0,
          630.0,
          631.0,
          630.0,
          629.0,
          631.0,
          632.0,
          630.0,
          630.0,
          630.0,
          629.0,
