{
  "aor": 0.006329876543209877,
  "aqi": 0.015531732716049384,
  "bids_meta": {
    "AcquisitionMatrixPE": 64,
    "AcquisitionNumber": 1,
    "AcquisitionTime": "14:26:33.215000",
    "BandwidthPerPixelPhaseEncode": 26.483,
    "BaseResolution": 64,
    "BodyPartExamined": "HEAD",
    "CogAtlasID": "TODO",
    "ConversionSoftware": "dcm2niix",
    "ConversionSoftwareVersion": "v1.0.20171017 GCC6.3.0",
    "DerivedVendorReportedEchoSpacing": 0.000590001,
    "DeviceSerialNumber": "35177",
    "DwellTime": 4.1e-06,
    "EchoTime": 0.027,
    "EffectiveEchoSpacing": 0.000590001,
    "FlipAngle": 90,
    "ImageOrientationPatientDICOM": [
      0.994855,
      0.0319663,
      -0.0961295,
      -0.020666,
      0.992996,
      0.116329
    ],
    "ImageType": [
      "ORIGINAL",
      "PRIMARY",
      "M",
      "ND",
      "NORM",
      "MOSAIC"
    ],
    "InPlanePhaseEncodingDirectionDICOM": "COL",
    "InstitutionAddress": "Scott_Ave._4525_St._Louis_MO_US_63110",
    "InstitutionName": "Washington_University",
    "InstitutionalDepartmentName": "Department",
    "MRAcquisitionType": "2D",
    "MagneticFieldStrength": 3,
    "Manufacturer": "Siemens",
    "ManufacturersModelName": "TrioTim",
    "Modality": "MR",
    "PartialFourier": 1,
    "PatientPosition": "HFS",
    "PercentPhaseFOV": 100,
    "PhaseEncodingDirection": "j-",
    "PhaseEncodingSteps": 64,
    "PhaseResolution": 1,
    "PixelBandwidth": 1905,
    "ProcedureStepDescription": "head_GREENE",
    "ProtocolName": "ep2d_bold_movie_rest_3A",
    "PulseSequenceDetails": "%SiemensSeq%_ep2d_bold",
    "ReceiveCoilName": "HeadMatrix",
    "ReconMatrixPE": 64,
    "RepetitionTime": 2.5,
    "SAR": 0.129669,
    "ScanOptions": "FS",
    "ScanningSequence": "EP",
    "SequenceName": "_epfid2d1_64",
    "SequenceVariant": "SK",
    "SeriesDescription": "ep2d_bold_movie_rest_3A",
    "SeriesNumber": 14,
    "ShimSetting": [
      -322,
      -19542,
      7963,
      277,
      -42,
      -397,
      482,
      138
    ],
    "SliceThickness": 4,
    "SliceTiming": [
      1.255,
      0,
      1.3325,
      0.0775,
      1.41,
      0.155,
      1.49,
      0.235,
      1.5675,
      0.3125,
      1.645,
      0.3925,
      1.725,
      0.47,
      1.8025,
      0.5475,
      1.8825,
      0.6275,
      1.96,
      0.705,
      2.0375,
      0.7825,
      2.1175,
      0.8625,
      2.195,
      0.94,
      2.2725,
      1.02,
      2.3525,
      1.0975,
      2.43,
      1.175
    ],
    "SoftwareVersions": "syngo_MR_B17",
    "SpacingBetweenSlices": 4,
    "StationName": "MRC35177",
    "TaskName": "restmovienofeedback",
    "TotalReadoutTime": 0.0371701,
    "TxRefAmp": 348.397,
    "dataset": "ds000256",
    "dcmmeta_affine": [
      [
        -3.979421615600586,
        -0.08266405016183853,
        -0.3966991603374481,
        130.16146850585938
      ],
      [
        -0.12786512076854706,
        3.971982717514038,
        0.4549771249294281,
        -137.45339965820312
      ],
      [
        -0.38451796770095825,
        -0.4653174579143524,
        3.954190731048584,
        -19.225360870361328
      ],
      [
        0.0,
        0.0,
        0.0,
        1.0
      ]
    ],
    "dcmmeta_reorient_transform": [
      [
        0.0,
        -1.0,
        0.0,
        63.0
      ],
      [
        1.0,
        0.0,
        0.0,
        0.0
      ],
      [
        0.0,
        0.0,
        1.0,
        0.0
      ],
      [
        0.0,
        0.0,
        0.0,
        1.0
      ]
    ],
    "dcmmeta_shape": [
      64,
      64,
      32,
      164
    ],
    "dcmmeta_slice_dim": 2,
    "dcmmeta_version": 0.6,
    "global": {
      "const": {
        "AccessionNumber": ".",
        "AcquisitionMatrix": [
          64,
          0,
          0,
          64
        ],
        "AngioFlag": "N",
        "BitsAllocated": 16,
        "BitsStored": 12,
        "BodyPartExamined": "HEAD",
        "Columns": 384,
        "DeidentificationMethodCodeSequence": [
          {
            "CodeMeaning": "XNAT Edit Script",
            "CodeValue": "625500",
            "CodingSchemeDesignator": "XNAT",
            "CodingSchemeVersion": "0.1"
          }
        ],
        "EchoNumbers": 1,
        "EchoTime": 27.0,
        "EchoTrainLength": 1,
        "FlipAngle": 90.0,
        "HighBit": 11,
        "ImageOrientationPatient": [
          0.99485540511068,
          0.03196627955712,
          -0.096129495439,
          -0.0206660121588,
          0.99299566701306,
          0.11632936531563
        ],
        "ImagePositionPatient": [
          -748.43484231924,
          -768.75715115609,
          -61.4682768292
        ],
        "ImageType": [
          "ORIGINAL",
          "PRIMARY",
          "M",
          "ND",
          "NORM",
          "MOSAIC"
        ],
        "ImagedNucleus": "1H",
        "ImagingFrequency": 123.255211,
        "InPlanePhaseEncodingDirection": "COL",
        "MRAcquisitionType": "2D",
        "MagneticFieldStrength": 3.0,
        "Manufacturer": "SIEMENS",
        "ManufacturerModelName": "TrioTim",
        "Modality": "MR",
        "NumberOfAverages": 1.0,
        "NumberOfPhaseEncodingSteps": 64,
        "PercentPhaseFieldOfView": 100.0,
        "PercentSampling": 100.0,
        "PerformedProcedureStepStartTime": "133402.968000",
        "PhotometricInterpretation": "MONOCHROME2",
        "PixelBandwidth": 1905.0,
        "PixelRepresentation": 0,
        "PixelSpacing": [
          4.0,
          4.0
        ],
        "PositionReferenceIndicator": "",
        "ProtocolName": "ep2d_bold_movie_rest_3A",
        "RepetitionTime": 2500.0,
        "Rows": 384,
        "SAR": 0.12966852745132,
        "SamplesPerPixel": 1,
        "ScanOptions": "FS",
        "ScanningSequence": "EP",
        "SequenceName": "*epfid2d1_64",
        "SequenceVariant": "SK",
        "SeriesDescription": "ep2d_bold_movie_rest_3A",
        "SeriesNumber": 14,
        "SeriesTime": "142635.640000",
        "SliceLocation": -47.548460809093,
        "SliceThickness": 4.0,
        "SmallestImagePixelValue": 0,
        "SoftwareVersions": "syngo MR B17",
        "SpacingBetweenSlices": 3.9999998880878,
        "SpecificCharacterSet": "ISO_IR 100",
        "StudyID": "1",
        "StudyTime": "133402.921000",
        "TransmitCoilName": "Body",
        "VariableFlipAngleFlag": "N",
        "WindowCenterWidthExplanation": "Algo1",
        "dBdt": 0.0
      },
      "slices": {}
    },
    "modality": "bold",
    "subject_id": "CTS201",
    "task_id": "restmovienofeedback",
    "time": {
      "samples": {
        "AcquisitionNumber": [
          1,
          2,
          3,
          4,
          5,
          6,
          7,
          8,
          9,
          10,
          11,
          12,
          13,
          14,
          15,
          16,
          17,
          18,
          19,
          20,
          21,
          22,
          23,
          24,
          25,
          26,
          27,
          28,
          29,
          30,
          31,
          32,
          33,
          34,
          35,
          36,
          37,
          38,
          39,
          40,
          41,
          42,
          43,
          44,
          45,
          46,
          47,
          48,
          49,
          50,
          51,
          52,
          53,
          54,
          55,
          56,
          57,
          58,
          59,
          60,
          61,
          62,
          63,
          64,
          65,
          66,
          67,
          68,
          69,
          70,
          71,
          72,
          73,
          74,
          75,
          76,
          77,
          78,
          79,
          80,
          81,
          82,
          83,
          84,
          85,
          86,
          87,
          88,
          89,
          90,
          91,
          92,
          93,
          94,
          95,
          96,
          97,
          98,
          99,
          100,
          101,
          102,
          103,
          104,
          105,
          106,
          107,
          108,
          109,
          110,
          111,
          112,
          113,
          114,
          115,
          116,
          117,
          118,
          119,
          120,
          121,
          122,
          123,
          124,
          125,
          126,
          127,
          128,
          129,
          130,
          131,
          132,
          133,
          134,
          135,
          136,
          137,
          138,
          139,
          140,
          141,
          142,
          143,
          144,
          145,
          146,
          147,
          148,
          149,
          150,
          151,
          152,
          153,
          154,
          155,
          156,
          157,
          158,
          159,
          160,
          161,
          162,
          163,
          164
        ],
        "AcquisitionTime": [
          "142633.215000",
          "142635.725000",
          "142638.235000",
          "142640.745000",
          "142643.255000",
          "142645.765000",
          "142648.275000",
          "142650.785000",
          "142653.295000",
          "142655.805000",
          "142658.315000",
          "142700.825000",
          "142703.335000",
          "142705.845000",
          "142708.355000",
          "142710.865000",
          "142713.375000",
          "142715.885000",
          "142718.395000",
          "142720.905000",
          "142723.415000",
          "142725.925000",
          "142728.435000",
          "142730.945000",
          "142733.455000",
          "142735.965000",
          "142738.475000",
          "142740.985000",
          "142743.495000",
          "142746.005000",
          "142748.515000",
          "142751.025000",
          "142753.535000",
          "142756.045000",
          "142758.555000",
          "142801.065000",
          "142803.575000",
          "142806.085000",
          "142808.595000",
          "142811.105000",
          "142813.615000",
          "142816.125000",
          "142818.635000",
          "142821.145000",
          "142823.655000",
          "142826.165000",
          "142828.675000",
          "142831.185000",
          "142833.695000",
          "142836.205000",
          "142838.715000",
          "142841.225000",
          "142843.735000",
          "142846.245000",
          "142848.755000",
          "142851.265000",
          "142853.777500",
          "142856.287500",
          "142858.797500",
          "142901.307500",
          "142903.817500",
          "142906.327500",
          "142908.837500",
          "142911.347500",
          "142913.857500",
          "142916.367500",
          "142918.877500",
          "142921.387500",
          "142923.897500",
          "142926.407500",
          "142928.917500",
          "142931.427500",
          "142933.937500",
          "142936.447500",
          "142938.957500",
          "142941.467500",
          "142943.977500",
          "142946.487500",
          "142948.997500",
          "142951.507500",
          "142954.017500",
          "142956.527500",
          "142959.037500",
          "143001.547500",
          "143004.057500",
          "143006.567500",
          "143009.077500",
          "143011.587500",
          "143014.097500",
          "143016.607500",
          "143019.117500",
          "143021.627500",
          "143024.137500",
          "143026.647500",
          "143029.157500",
          "143031.667500",
          "143034.177500",
          "143036.687500",
          "143039.197500",
          "143041.707500",
          "143044.217500",
          "143046.727500",
          "143049.237500",
          "143051.747500",
          "143054.257500",
          "143056.767500",
          "143059.277500",
          "143101.787500",
          "143104.297500",
          "143106.807500",
          "143109.317500",
          "143111.827500",
          "143114.337500",
          "143116.847500",
          "143119.357500",
          "143121.867500",
          "143124.377500",
          "143126.887500",
          "143129.400000",
          "143131.910000",
          "143134.420000",
          "143136.930000",
          "143139.440000",
          "143141.950000",
          "143144.460000",
          "143146.970000",
          "143149.480000",
          "143151.990000",
          "143154.500000",
          "143157.010000",
          "143159.520000",
          "143202.030000",
          "143204.540000",
          "143207.050000",
          "143209.560000",
          "143212.070000",
          "143214.580000",
          "143217.090000",
          "143219.600000",
          "143222.110000",
          "143224.620000",
          "143227.130000",
          "143229.640000",
          "143232.150000",
          "143234.660000",
          "143237.170000",
          "143239.680000",
          "143242.190000",
          "143244.700000",
          "143247.210000",
          "143249.720000",
          "143252.230000",
          "143254.740000",
          "143257.250000",
          "143259.760000",
          "143302.270000",
          "143304.780000",
          "143307.290000",
          "143309.800000",
          "143312.310000",
          "143314.820000",
          "143317.330000",
          "143319.840000",
          "143322.350000"
        ],
        "ContentTime": [
          "142635.640000",
          "142638.140000",
          "142640.640000",
          "142643.140000",
          "142645.640000",
          "142648.140000",
          "142650.640000",
          "142653.140000",
          "142655.640000",
          "142658.140000",
          "142700.640000",
          "142703.140000",
          "142705.640000",
          "142708.140000",
          "142710.640000",
          "142713.140000",
          "142715.640000",
          "142718.140000",
          "142720.640000",
          "142723.140000",
          "142725.640000",
          "142728.140000",
          "142730.640000",
          "142733.140000",
          "142735.640000",
          "142738.140000",
          "142740.640000",
          "142743.140000",
          "142745.640000",
          "142748.140000",
          "142750.640000",
          "142753.140000",
          "142755.640000",
          "142758.140000",
          "142800.640000",
          "142803.140000",
          "142805.640000",
          "142808.140000",
          "142810.640000",
          "142813.140000",
          "142815.640000",
          "142818.140000",
          "142820.640000",
          "142823.140000",
          "142825.640000",
          "142828.140000",
          "142830.640000",
          "142833.140000",
          "142835.640000",
          "142838.140000",
          "142840.640000",
          "142843.140000",
          "142845.640000",
          "142848.140000",
          "142850.640000",
          "142853.140000",
          "142855.640000",
          "142858.140000",
          "142900.640000",
          "142903.140000",
          "142905.640000",
          "142908.140000",
          "142910.640000",
          "142913.140000",
          "142915.640000",
          "142918.140000",
          "142920.640000",
          "142923.140000",
          "142925.640000",
          "142928.140000",
          "142930.640000",
          "142933.140000",
          "142935.640000",
          "142938.140000",
          "142940.640000",
          "142943.140000",
          "142945.640000",
          "142948.140000",
          "142950.640000",
          "142953.140000",
          "142955.640000",
          "142958.140000",
          "143000.640000",
          "143003.140000",
          "143005.640000",
          "143008.140000",
          "143010.640000",
          "143013.140000",
          "143015.640000",
          "143018.140000",
          "143020.640000",
          "143023.140000",
          "143025.640000",
          "143028.140000",
          "143030.640000",
          "143033.140000",
          "143035.640000",
          "143038.140000",
          "143040.640000",
          "143043.140000",
          "143045.640000",
          "143048.140000",
          "143050.640000",
          "143053.140000",
          "143055.640000",
          "143058.140000",
          "143100.640000",
          "143103.140000",
          "143105.640000",
          "143108.140000",
          "143110.640000",
          "143113.140000",
          "143115.640000",
          "143118.140000",
          "143120.640000",
          "143123.140000",
          "143125.640000",
          "143128.140000",
          "143130.640000",
          "143133.140000",
          "143135.640000",
          "143138.140000",
          "143140.640000",
          "143143.140000",
          "143145.640000",
          "143148.140000",
          "143150.640000",
          "143153.140000",
          "143155.640000",
          "143158.140000",
          "143200.640000",
          "143203.140000",
          "143205.640000",
          "143208.140000",
          "143210.640000",
          "143213.140000",
          "143215.640000",
          "143218.140000",
          "143220.640000",
          "143223.140000",
          "143225.640000",
          "143228.140000",
          "143230.640000",
          "143233.140000",
          "143235.640000",
          "143238.140000",
          "143240.640000",
          "143243.140000",
          "143245.640000",
          "143248.140000",
          "143250.640000",
          "143253.140000",
          "143255.640000",
          "143258.140000",
          "143300.640000",
          "143303.140000",
          "143305.640000",
          "143308.140000",
          "143310.640000",
          "143313.140000",
          "143315.640000",
          "143318.140000",
          "143320.640000",
          "143322.718000"
        ],
        "InstanceCreationTime": [
          "142635.640000",
          "142638.140000",
          "142640.640000",
          "142643.140000",
          "142645.640000",
          "142648.140000",
          "142650.640000",
          "142653.140000",
          "142655.640000",
          "142658.140000",
          "142700.640000",
          "142703.140000",
          "142705.640000",
          "142708.140000",
          "142710.640000",
          "142713.140000",
          "142715.640000",
          "142718.140000",
          "142720.640000",
          "142723.140000",
          "142725.640000",
          "142728.140000",
          "142730.640000",
          "142733.140000",
          "142735.640000",
          "142738.140000",
          "142740.640000",
          "142743.140000",
          "142745.640000",
          "142748.140000",
          "142750.640000",
          "142753.140000",
          "142755.640000",
          "142758.140000",
          "142800.640000",
          "142803.140000",
          "142805.640000",
          "142808.140000",
          "142810.640000",
          "142813.140000",
          "142815.640000",
          "142818.140000",
          "142820.640000",
          "142823.140000",
          "142825.640000",
          "142828.140000",
          "142830.640000",
          "142833.140000",
          "142835.640000",
          "142838.140000",
          "142840.640000",
          "142843.140000",
          "142845.640000",
          "142848.140000",
          "142850.640000",
          "142853.140000",
          "142855.640000",
          "142858.140000",
          "142900.640000",
          "142903.140000",
          "142905.640000",
          "142908.140000",
          "142910.640000",
          "142913.140000",
          "142915.640000",
          "142918.140000",
          "142920.640000",
          "142923.140000",
          "142925.640000",
          "142928.140000",
          "142930.640000",
          "142933.140000",
          "142935.640000",
          "142938.140000",
          "142940.640000",
          "142943.140000",
          "142945.640000",
          "142948.140000",
          "142950.640000",
          "142953.140000",
          "142955.640000",
          "142958.140000",
          "143000.640000",
          "143003.140000",
          "143005.640000",
          "143008.140000",
          "143010.640000",
          "143013.140000",
          "143015.640000",
          "143018.140000",
          "143020.640000",
          "143023.140000",
          "143025.640000",
          "143028.140000",
          "143030.640000",
          "143033.140000",
          "143035.640000",
          "143038.140000",
          "143040.640000",
          "143043.140000",
          "143045.640000",
          "143048.140000",
          "143050.640000",
          "143053.140000",
          "143055.640000",
          "143058.140000",
          "143100.640000",
          "143103.140000",
          "143105.640000",
          "143108.140000",
          "143110.640000",
          "143113.140000",
          "143115.640000",
          "143118.140000",
          "143120.640000",
          "143123.140000",
          "143125.640000",
          "143128.140000",
          "143130.640000",
          "143133.140000",
          "143135.640000",
          "143138.140000",
          "143140.640000",
          "143143.140000",
          "143145.640000",
          "143148.140000",
          "143150.640000",
          "143153.140000",
          "143155.640000",
          "143158.140000",
          "143200.640000",
          "143203.140000",
          "143205.640000",
          "143208.140000",
          "143210.640000",
          "143213.140000",
          "143215.640000",
          "143218.140000",
          "143220.640000",
          "143223.140000",
          "143225.640000",
          "143228.140000",
          "143230.640000",
          "143233.140000",
          "143235.640000",
          "143238.140000",
          "143240.640000",
          "143243.140000",
          "143245.640000",
          "143248.140000",
          "143250.640000",
          "143253.140000",
          "143255.640000",
          "143258.140000",
          "143300.640000",
          "143303.140000",
          "143305.640000",
          "143308.140000",
          "143310.640000",
          "143313.140000",
          "143315.640000",
          "143318.140000",
          "143320.640000",
          "143322.718000"
        ],
        "InstanceNumber": [
          1,
          2,
          3,
          4,
          5,
          6,
          7,
          8,
          9,
          10,
          11,
          12,
          13,
          14,
          15,
          16,
          17,
          18,
          19,
          20,
          21,
          22,
          23,
          24,
          25,
          26,
          27,
          28,
          29,
          30,
          31,
          32,
          33,
          34,
          35,
          36,
          37,
          38,
          39,
          40,
          41,
          42,
          43,
          44,
          45,
          46,
          47,
          48,
          49,
          50,
          51,
          52,
          53,
          54,
          55,
          56,
          57,
          58,
          59,
          60,
          61,
          62,
          63,
          64,
          65,
          66,
          67,
          68,
          69,
          70,
          71,
          72,
          73,
          74,
          75,
          76,
          77,
          78,
          79,
          80,
          81,
          82,
          83,
          84,
          85,
          86,
          87,
          88,
          89,
          90,
          91,
          92,
          93,
          94,
          95,
          96,
          97,
          98,
          99,
          100,
          101,
          102,
          103,
          104,
          105,
          106,
          107,
          108,
          109,
          110,
          111,
          112,
          113,
          114,
          115,
          116,
          117,
          118,
          119,
          120,
          121,
          122,
          123,
          124,
          125,
          126,
          127,
          128,
          129,
          130,
          131,
          132,
          133,
          134,
          135,
          136,
          137,
          138,
          139,
          140,
          141,
          142,
          143,
          144,
          145,
          146,
          147,
          148,
          149,
          150,
          151,
          152,
          153,
          154,
          155,
          156,
          157,
          158,
          159,
          160,
          161,
          162,
          163,
          164
        ],
        "LargestImagePixelValue": [
          1550,
          1640,
          1568,
          1478,
          1473,
          1518,
          1622,
          1531,
          1553,
          1456,
          2321,
          2181,
          2055,
          1860,
          2026,
          1718,
          1616,
          2002,
          2378,
          2402,
          1857,
          2144,
          1765,
          1703,
          1780,
          2016,
          1963,
          1927,
          1756,
          1507,
          1450,
          1449,
          1579,
          1869,
          1734,
          1731,
          1552,
          1798,
          1816,
          1586,
          1647,
          1735,
          2044,
          2108,
          2153,
          1848,
          1939,
          1491,
          1460,
          1666,
          1774,
          1684,
          1552,
          1608,
          1666,
          1776,
          1822,
          1698,
          1580,
          1565,
          1927,
          1944,
          2100,
          2106,
          1520,
          1517,
          1422,
          1981,
          2073,
          1418,
          1521,
          1723,
          1821,
          1665,
          1726,
          1818,
          2208,
          1590,
          1672,
          1394,
          1439,
          1629,
          1565,
          1683,
          1893,
          1647,
          2062,
          1640,
          1425,
          1506,
          2042,
          1529,
          1565,
          1798,
          1950,
          1923,
          1423,
          1682,
          1754,
          1707,
          1388,
          1577,
          1424,
          1650,
          1539,
          1416,
          1788,
          1978,
          1714,
          1531,
          1482,
          1560,
          1784,
          1784,
          1542,
          1473,
          1628,
          1521,
          1529,
          1588,
          1483,
          1369,
          1485,
          1451,
          1786,
          1638,
          1764,
          1606,
          1447,
          1453,
          1574,
          1618,
          1649,
          1584,
          1438,
          2136,
          1484,
          1746,
          1907,
          1585,
          1816,
          1889,
          1755,
          1551,
          1791,
          2145,
          1485,
          1796,
          1573,
          1440,
          2073,
          1490,
          1791,
          2127,
          1536,
          1475,
          1763,
          1461,
          1511,
          2128,
          1421,
          1814,
          2044,
          1479
        ],
        "WindowCenter": [
          653.0,
          651.0,
          651.0,
          652.0,
          652.0,
          653.0,
          652.0,
          652.0,
          653.0,
          654.0,
          655.0,
          654.0,
          653.0,
          652.0,
          654.0,
          653.0,
          653.0,
          653.0,
          654.0,
          653.0,
          652.0,
          654.0,
          653.0,
          652.0,
          653.0,
          654.0,
          653.0,
          653.0,
          653.0,
          654.0,
          652.0,
          653.0,
          652.0,
          654.0,
          654.0,
          653.0,
          653.0,
          653.0,
          654.0,
          653.0,
          653.0,
          654.0,
          653.0,
          654.0,
          654.0,
          653.0,
          654.0,
          652.0,
          652.0,
          654.0,
          653.0,
          654.0,
          653.0,
          652.0,
          652.0,
          652.0,
          654.0,
          652.0,
          654.0,
          651.0,
          654.0,
          651.0,
          653.0,
          654.0,
          654.0,
          652.0,
          652.0,
          654.0,
          654.0,
          652.0,
          654.0,
          653.0,
          651.0,
          653.0,
          653.0,
          652.0,
          654.0,
          651.0,
          651.0,
          651.0,
          651.0,
          651.0,
          652.0,
          651.0,
          651.0,
          653.0,
          653.0,
          651.0,
          651.0,
          651.0,
          653.0,
          652.0,
          653.0,
          653.0,
          653.0,
          653.0,
          650.0,
          651.0,
          651.0,
          651.0,
          649.0,
          649.0,
          649.0,
          651.0,
          650.0,
          650.0,
          651.0,
          651.0,
          651.0,
          650.0,
          650.0,
          650.0,
          651.0,
          652.0,
          650.0,
          651.0,
          651.0,
          650.0,
          652.0,
          651.0,
          649.0,
          651.0,
          650.0,
          650.0,
          652.0,
          650.0,
          652.0,
          651.0,
          651.0,
          652.0,
          652.0,
          653.0,
          653.0,
          652.0,
          651.0,
          654.0,
          652.0,
          652.0,
          651.0,
          652.0,
          653.0,
          653.0,
          651.0,
          652.0,
          652.0,
          653.0,
          651.0,
          653.0,
