{
  "aor": 0.010099268292682926,
  "aqi": 0.03587420670731707,
  "bids_meta": {
    "AcquisitionMatrixPE": 64,
    "AcquisitionNumber": 1,
    "AcquisitionTime": "14:18:41.035000",
    "BandwidthPerPixelPhaseEncode": 26.483,
    "BaseResolution": 64,
    "BodyPartExamined": "HEAD",
    "CogAtlasID": "TODO",
    "ConversionSoftware": "dcm2niix",
    "ConversionSoftwareVersion": "v1.0.20171017 GCC6.3.0",
    "DerivedVendorReportedEchoSpacing": 0.000590001,
    "DeviceSerialNumber": "35177",
    "DwellTime": 4.1e-06,
    "EchoTime": 0.027,
    "EffectiveEchoSpacing": 0.000590001,
    "FlipAngle": 90,
    "ImageOrientationPatientDICOM": [
      0.994855,
      0.0319663,
      -0.0961295,
      -0.020666,
      0.992996,
      0.116329
    ],
    "ImageType": [
      "ORIGINAL",
      "PRIMARY",
      "M",
      "ND",
      "NORM",
      "MOSAIC"
    ],
    "InPlanePhaseEncodingDirectionDICOM": "COL",
    "InstitutionAddress": "Scott_Ave._4525_St._Louis_MO_US_63110",
    "InstitutionName": "Washington_University",
    "InstitutionalDepartmentName": "Department",
    "MRAcquisitionType": "2D",
    "MagneticFieldStrength": 3,
    "Manufacturer": "Siemens",
    "ManufacturersModelName": "TrioTim",
    "Modality": "MR",
    "PartialFourier": 1,
    "PatientPosition": "HFS",
    "PercentPhaseFOV": 100,
    "PhaseEncodingDirection": "j-",
    "PhaseEncodingSteps": 64,
    "PhaseResolution": 1,
    "PixelBandwidth": 1905,
    "ProcedureStepDescription": "head_GREENE",
    "ProtocolName": "ep2d_bold_rest2",
    "PulseSequenceDetails": "%SiemensSeq%_ep2d_bold",
    "ReceiveCoilName": "HeadMatrix",
    "ReconMatrixPE": 64,
    "RepetitionTime": 2.5,
    "SAR": 0.129669,
    "ScanOptions": "FS",
    "ScanningSequence": "EP",
    "SequenceName": "_epfid2d1_64",
    "SequenceVariant": "SK",
    "SeriesDescription": "ep2d_bold_rest2",
    "SeriesNumber": 13,
    "ShimSetting": [
      -322,
      -19542,
      7963,
      277,
      -42,
      -397,
      482,
      138
    ],
    "SliceThickness": 4,
    "SliceTiming": [
      1.255,
      0,
      1.335,
      0.08,
      1.4125,
      0.1575,
      1.49,
      0.235,
      1.57,
      0.315,
      1.6475,
      0.3925,
      1.725,
      0.47,
      1.805,
      0.55,
      1.8825,
      0.6275,
      1.96,
      0.7075,
      2.04,
      0.785,
      2.1175,
      0.8625,
      2.1975,
      0.9425,
      2.275,
      1.02,
      2.3525,
      1.0975,
      2.4325,
      1.1775
    ],
    "SoftwareVersions": "syngo_MR_B17",
    "SpacingBetweenSlices": 4,
    "StationName": "MRC35177",
    "TaskName": "restfixationnofeedback",
    "TotalReadoutTime": 0.0371701,
    "TxRefAmp": 348.397,
    "dataset": "ds000256",
    "dcmmeta_affine": [
      [
        -3.979421615600586,
        -0.08266405016183853,
        -0.3966991603374481,
        130.16146850585938
      ],
      [
        -0.12786512076854706,
        3.971982717514038,
        0.4549771249294281,
        -137.45339965820312
      ],
      [
        -0.38451796770095825,
        -0.4653174579143524,
        3.954190731048584,
        -15.3699369430542
      ],
      [
        0.0,
        0.0,
        0.0,
        1.0
      ]
    ],
    "dcmmeta_reorient_transform": [
      [
        0.0,
        -1.0,
        0.0,
        63.0
      ],
      [
        1.0,
        0.0,
        0.0,
        0.0
      ],
      [
        0.0,
        0.0,
        1.0,
        0.0
      ],
      [
        0.0,
        0.0,
        0.0,
        1.0
      ]
    ],
    "dcmmeta_shape": [
      64,
      64,
      32,
      164
    ],
    "dcmmeta_slice_dim": 2,
    "dcmmeta_version": 0.6,
    "global": {
      "const": {
        "AccessionNumber": ".",
        "AcquisitionMatrix": [
          64,
          0,
          0,
          64
        ],
        "AngioFlag": "N",
        "BitsAllocated": 16,
        "BitsStored": 12,
        "BodyPartExamined": "HEAD",
        "Columns": 384,
        "DeidentificationMethodCodeSequence": [
          {
            "CodeMeaning": "XNAT Edit Script",
            "CodeValue": "625500",
            "CodingSchemeDesignator": "XNAT",
            "CodingSchemeVersion": "0.1"
          }
        ],
        "EchoNumbers": 1,
        "EchoTime": 27.0,
        "EchoTrainLength": 1,
        "FlipAngle": 90.0,
        "HighBit": 11,
        "ImageOrientationPatient": [
          0.99485540511068,
          0.03196627955712,
          -0.096129495439,
          -0.0206660121588,
          0.99299566701306,
          0.11632936531563
        ],
        "ImagePositionPatient": [
          -748.43484231924,
          -768.75715115609,
          -57.612853855567
        ],
        "ImageType": [
          "ORIGINAL",
          "PRIMARY",
          "M",
          "ND",
          "NORM",
          "MOSAIC"
        ],
        "ImagedNucleus": "1H",
        "ImagingFrequency": 123.255202,
        "InPlanePhaseEncodingDirection": "COL",
        "MRAcquisitionType": "2D",
        "MagneticFieldStrength": 3.0,
        "Manufacturer": "SIEMENS",
        "ManufacturerModelName": "TrioTim",
        "Modality": "MR",
        "NumberOfAverages": 1.0,
        "NumberOfPhaseEncodingSteps": 64,
        "PercentPhaseFieldOfView": 100.0,
        "PercentSampling": 100.0,
        "PerformedProcedureStepStartTime": "133402.968000",
        "PhotometricInterpretation": "MONOCHROME2",
        "PixelBandwidth": 1905.0,
        "PixelRepresentation": 0,
        "PixelSpacing": [
          4.0,
          4.0
        ],
        "PositionReferenceIndicator": "",
        "ProtocolName": "ep2d_bold_rest2",
        "RepetitionTime": 2500.0,
        "Rows": 384,
        "SAR": 0.12966852745132,
        "SamplesPerPixel": 1,
        "ScanOptions": "FS",
        "ScanningSequence": "EP",
        "SequenceName": "*epfid2d1_64",
        "SequenceVariant": "SK",
        "SeriesDescription": "ep2d_bold_rest2",
        "SeriesNumber": 13,
        "SeriesTime": "141842.421000",
        "SliceLocation": -43.73719121077,
        "SliceThickness": 4.0,
        "SmallestImagePixelValue": 0,
        "SoftwareVersions": "syngo MR B17",
        "SpacingBetweenSlices": 3.9999998880878,
        "SpecificCharacterSet": "ISO_IR 100",
        "StudyID": "1",
        "StudyTime": "133402.921000",
        "TransmitCoilName": "Body",
        "VariableFlipAngleFlag": "N",
        "WindowCenterWidthExplanation": "Algo1",
        "dBdt": 0.0
      },
      "slices": {}
    },
    "modality": "bold",
    "subject_id": "CTS201",
    "task_id": "restfixationnofeedback",
    "time": {
      "samples": {
        "AcquisitionNumber": [
          1,
          2,
          3,
          4,
          5,
          6,
          7,
          8,
          9,
          10,
          11,
          12,
          13,
          14,
          15,
          16,
          17,
          18,
          19,
          20,
          21,
          22,
          23,
          24,
          25,
          26,
          27,
          28,
          29,
          30,
          31,
          32,
          33,
          34,
          35,
          36,
          37,
          38,
          39,
          40,
          41,
          42,
          43,
          44,
          45,
          46,
          47,
          48,
          49,
          50,
          51,
          52,
          53,
          54,
          55,
          56,
          57,
          58,
          59,
          60,
          61,
          62,
          63,
          64,
          65,
          66,
          67,
          68,
          69,
          70,
          71,
          72,
          73,
          74,
          75,
          76,
          77,
          78,
          79,
          80,
          81,
          82,
          83,
          84,
          85,
          86,
          87,
          88,
          89,
          90,
          91,
          92,
          93,
          94,
          95,
          96,
          97,
          98,
          99,
          100,
          101,
          102,
          103,
          104,
          105,
          106,
          107,
          108,
          109,
          110,
          111,
          112,
          113,
          114,
          115,
          116,
          117,
          118,
          119,
          120,
          121,
          122,
          123,
          124,
          125,
          126,
          127,
          128,
          129,
          130,
          131,
          132,
          133,
          134,
          135,
          136,
          137,
          138,
          139,
          140,
          141,
          142,
          143,
          144,
          145,
          146,
          147,
          148,
          149,
          150,
          151,
          152,
          153,
          154,
          155,
          156,
          157,
          158,
          159,
          160,
          161,
          162,
          163,
          164
        ],
        "AcquisitionTime": [
          "141841.035000",
          "141843.545000",
          "141846.055000",
          "141848.565000",
          "141851.075000",
          "141853.585000",
          "141856.095000",
          "141858.605000",
          "141901.115000",
          "141903.625000",
          "141906.135000",
          "141908.645000",
          "141911.155000",
          "141913.665000",
          "141916.175000",
          "141918.685000",
          "141921.195000",
          "141923.705000",
          "141926.215000",
          "141928.725000",
          "141931.235000",
          "141933.745000",
          "141936.257500",
          "141938.767500",
          "141941.277500",
          "141943.787500",
          "141946.297500",
          "141948.807500",
          "141951.317500",
          "141953.827500",
          "141956.337500",
          "141958.847500",
          "142001.357500",
          "142003.867500",
          "142006.377500",
          "142008.887500",
          "142011.397500",
          "142013.907500",
          "142016.417500",
          "142018.927500",
          "142021.437500",
          "142023.947500",
          "142026.457500",
          "142028.967500",
          "142031.477500",
          "142033.987500",
          "142036.497500",
          "142039.007500",
          "142041.517500",
          "142044.027500",
          "142046.537500",
          "142049.047500",
          "142051.557500",
          "142054.067500",
          "142056.577500",
          "142059.087500",
          "142101.597500",
          "142104.107500",
          "142106.617500",
          "142109.127500",
          "142111.637500",
          "142114.147500",
          "142116.657500",
          "142119.167500",
          "142121.677500",
          "142124.187500",
          "142126.697500",
          "142129.207500",
          "142131.717500",
          "142134.227500",
          "142136.737500",
          "142139.247500",
          "142141.757500",
          "142144.267500",
          "142146.777500",
          "142149.287500",
          "142151.797500",
          "142154.307500",
          "142156.817500",
          "142159.327500",
          "142201.837500",
          "142204.347500",
          "142206.857500",
          "142209.367500",
          "142211.880000",
          "142214.390000",
          "142216.900000",
          "142219.410000",
          "142221.920000",
          "142224.430000",
          "142226.940000",
          "142229.450000",
          "142231.960000",
          "142234.470000",
          "142236.980000",
          "142239.490000",
          "142242.000000",
          "142244.510000",
          "142247.020000",
          "142249.530000",
          "142252.040000",
          "142254.550000",
          "142257.060000",
          "142259.570000",
          "142302.080000",
          "142304.590000",
          "142307.100000",
          "142309.610000",
          "142312.120000",
          "142314.630000",
          "142317.140000",
          "142319.650000",
          "142322.160000",
          "142324.670000",
          "142327.180000",
          "142329.690000",
          "142332.200000",
          "142334.710000",
          "142337.220000",
          "142339.730000",
          "142342.240000",
          "142344.750000",
          "142347.260000",
          "142349.770000",
          "142352.280000",
          "142354.790000",
          "142357.300000",
          "142359.810000",
          "142402.320000",
          "142404.830000",
          "142407.340000",
          "142409.850000",
          "142412.360000",
          "142414.870000",
          "142417.380000",
          "142419.890000",
          "142422.400000",
          "142424.910000",
          "142427.420000",
          "142429.930000",
          "142432.440000",
          "142434.950000",
          "142437.460000",
          "142439.970000",
          "142442.480000",
          "142444.990000",
          "142447.502500",
          "142450.012500",
          "142452.522500",
          "142455.032500",
          "142457.542500",
          "142500.052500",
          "142502.562500",
          "142505.072500",
          "142507.582500",
          "142510.092500",
          "142512.602500",
          "142515.112500",
          "142517.622500",
          "142520.132500",
          "142522.642500",
          "142525.152500",
          "142527.662500",
          "142530.172500"
        ],
        "ContentTime": [
          "141842.421000",
          "141844.921000",
          "141847.421000",
          "141849.921000",
          "141852.421000",
          "141854.921000",
          "141857.421000",
          "141859.921000",
          "141902.421000",
          "141904.921000",
          "141907.421000",
          "141909.921000",
          "141912.421000",
          "141914.921000",
          "141917.421000",
          "141919.921000",
          "141922.421000",
          "141924.921000",
          "141927.421000",
          "141929.921000",
          "141932.421000",
          "141934.921000",
          "141937.421000",
          "141939.921000",
          "141942.421000",
          "141944.921000",
          "141947.421000",
          "141949.921000",
          "141952.421000",
          "141954.921000",
          "141957.421000",
          "141959.921000",
          "142002.421000",
          "142004.921000",
          "142007.421000",
          "142009.921000",
          "142012.421000",
          "142014.921000",
          "142017.421000",
          "142019.921000",
          "142022.421000",
          "142024.921000",
          "142027.421000",
          "142029.921000",
          "142032.421000",
          "142034.921000",
          "142037.421000",
          "142039.921000",
          "142042.421000",
          "142044.921000",
          "142047.421000",
          "142049.921000",
          "142052.421000",
          "142054.921000",
          "142057.421000",
          "142059.921000",
          "142102.421000",
          "142104.921000",
          "142107.421000",
          "142109.921000",
          "142112.421000",
          "142114.921000",
          "142117.421000",
          "142119.921000",
          "142122.421000",
          "142124.921000",
          "142127.421000",
          "142129.921000",
          "142132.421000",
          "142134.921000",
          "142137.421000",
          "142139.921000",
          "142142.421000",
          "142144.921000",
          "142147.421000",
          "142149.921000",
          "142152.421000",
          "142154.921000",
          "142157.421000",
          "142159.921000",
          "142202.421000",
          "142204.921000",
          "142207.421000",
          "142209.921000",
          "142212.421000",
          "142214.921000",
          "142217.421000",
          "142219.921000",
          "142222.421000",
          "142224.921000",
          "142227.421000",
          "142229.921000",
          "142232.421000",
          "142234.921000",
          "142237.421000",
          "142239.921000",
          "142242.421000",
          "142244.921000",
          "142247.421000",
          "142249.921000",
          "142252.421000",
          "142254.921000",
          "142257.421000",
          "142259.921000",
          "142302.421000",
          "142304.921000",
          "142307.421000",
          "142309.921000",
          "142312.421000",
          "142314.921000",
          "142317.421000",
          "142319.921000",
          "142322.421000",
          "142324.921000",
          "142327.421000",
          "142329.921000",
          "142332.421000",
          "142334.921000",
          "142337.421000",
          "142339.921000",
          "142342.421000",
          "142344.921000",
          "142347.421000",
          "142349.921000",
          "142352.421000",
          "142354.921000",
          "142357.421000",
          "142359.921000",
          "142402.421000",
          "142404.921000",
          "142407.421000",
          "142409.921000",
          "142412.421000",
          "142414.921000",
          "142417.421000",
          "142419.921000",
          "142422.421000",
          "142424.921000",
          "142427.421000",
          "142429.921000",
          "142432.421000",
          "142434.921000",
          "142437.421000",
          "142439.921000",
          "142442.421000",
          "142444.921000",
          "142447.421000",
          "142449.921000",
          "142452.421000",
          "142454.921000",
          "142457.421000",
          "142459.921000",
          "142502.421000",
          "142504.921000",
          "142507.421000",
          "142509.921000",
          "142512.421000",
          "142514.921000",
          "142517.421000",
          "142519.921000",
          "142522.421000",
          "142524.921000",
          "142527.421000",
          "142529.828000"
        ],
        "InstanceCreationTime": [
          "141842.421000",
          "141844.921000",
          "141847.421000",
          "141849.921000",
          "141852.421000",
          "141854.921000",
          "141857.421000",
          "141859.921000",
          "141902.421000",
          "141904.921000",
          "141907.421000",
          "141909.921000",
          "141912.421000",
          "141914.921000",
          "141917.421000",
          "141919.921000",
          "141922.421000",
          "141924.921000",
          "141927.421000",
          "141929.921000",
          "141932.421000",
          "141934.921000",
          "141937.421000",
          "141939.921000",
          "141942.421000",
          "141944.921000",
          "141947.421000",
          "141949.921000",
          "141952.421000",
          "141954.921000",
          "141957.421000",
          "141959.921000",
          "142002.421000",
          "142004.921000",
          "142007.421000",
          "142009.921000",
          "142012.421000",
          "142014.921000",
          "142017.421000",
          "142019.921000",
          "142022.421000",
          "142024.921000",
          "142027.421000",
          "142029.921000",
          "142032.421000",
          "142034.921000",
          "142037.421000",
          "142039.921000",
          "142042.421000",
          "142044.921000",
          "142047.421000",
          "142049.921000",
          "142052.421000",
          "142054.921000",
          "142057.421000",
          "142059.921000",
          "142102.421000",
          "142104.921000",
          "142107.421000",
          "142109.921000",
          "142112.421000",
          "142114.921000",
          "142117.421000",
          "142119.921000",
          "142122.421000",
          "142124.921000",
          "142127.421000",
          "142129.921000",
          "142132.421000",
          "142134.921000",
          "142137.421000",
          "142139.921000",
          "142142.421000",
          "142144.921000",
          "142147.421000",
          "142149.921000",
          "142152.421000",
          "142154.921000",
          "142157.421000",
          "142159.921000",
          "142202.421000",
          "142204.921000",
          "142207.421000",
          "142209.921000",
          "142212.421000",
          "142214.921000",
          "142217.421000",
          "142219.921000",
          "142222.421000",
          "142224.921000",
          "142227.421000",
          "142229.921000",
          "142232.421000",
          "142234.921000",
          "142237.421000",
          "142239.921000",
          "142242.421000",
          "142244.921000",
          "142247.421000",
          "142249.921000",
          "142252.421000",
          "142254.921000",
          "142257.421000",
          "142259.921000",
          "142302.421000",
          "142304.921000",
          "142307.421000",
          "142309.921000",
          "142312.421000",
          "142314.921000",
          "142317.421000",
          "142319.921000",
          "142322.421000",
          "142324.921000",
          "142327.421000",
          "142329.921000",
          "142332.421000",
          "142334.921000",
          "142337.421000",
          "142339.921000",
          "142342.421000",
          "142344.921000",
          "142347.421000",
          "142349.921000",
          "142352.421000",
          "142354.921000",
          "142357.421000",
          "142359.921000",
          "142402.421000",
          "142404.921000",
          "142407.421000",
          "142409.921000",
          "142412.421000",
          "142414.921000",
          "142417.421000",
          "142419.921000",
          "142422.421000",
          "142424.921000",
          "142427.421000",
          "142429.921000",
          "142432.421000",
          "142434.921000",
          "142437.421000",
          "142439.921000",
          "142442.421000",
          "142444.921000",
          "142447.421000",
          "142449.921000",
          "142452.421000",
          "142454.921000",
          "142457.421000",
          "142459.921000",
          "142502.421000",
          "142504.921000",
          "142507.421000",
          "142509.921000",
          "142512.421000",
          "142514.921000",
          "142517.421000",
          "142519.921000",
          "142522.421000",
          "142524.921000",
          "142527.421000",
          "142529.828000"
        ],
        "InstanceNumber": [
          1,
          2,
          3,
          4,
          5,
          6,
          7,
          8,
          9,
          10,
          11,
          12,
          13,
          14,
          15,
          16,
          17,
          18,
          19,
          20,
          21,
          22,
          23,
          24,
          25,
          26,
          27,
          28,
          29,
          30,
          31,
          32,
          33,
          34,
          35,
          36,
          37,
          38,
          39,
          40,
          41,
          42,
          43,
          44,
          45,
          46,
          47,
          48,
          49,
          50,
          51,
          52,
          53,
          54,
          55,
          56,
          57,
          58,
          59,
          60,
          61,
          62,
          63,
          64,
          65,
          66,
          67,
          68,
          69,
          70,
          71,
          72,
          73,
          74,
          75,
          76,
          77,
          78,
          79,
          80,
          81,
          82,
          83,
          84,
          85,
          86,
          87,
          88,
          89,
          90,
          91,
          92,
          93,
          94,
          95,
          96,
          97,
          98,
          99,
          100,
          101,
          102,
          103,
          104,
          105,
          106,
          107,
          108,
          109,
          110,
          111,
          112,
          113,
          114,
          115,
          116,
          117,
          118,
          119,
          120,
          121,
          122,
          123,
          124,
          125,
          126,
          127,
          128,
          129,
          130,
          131,
          132,
          133,
          134,
          135,
          136,
          137,
          138,
          139,
          140,
          141,
          142,
          143,
          144,
          145,
          146,
          147,
          148,
          149,
          150,
          151,
          152,
          153,
          154,
          155,
          156,
          157,
          158,
          159,
          160,
          161,
          162,
          163,
          164
        ],
        "LargestImagePixelValue": [
          2288,
          1704,
          1672,
          1938,
          1862,
          1719,
          1810,
          1924,
          1677,
          1776,
          1420,
          2116,
          1768,
          1753,
          1730,
          1977,
          1877,
          2589,
          2205,
          2457,
          2081,
          1862,
          1674,
          1878,
          2234,
          1843,
          1935,
          1835,
          1610,
          1878,
          1498,
          2036,
          2302,
          1917,
          2120,
          1731,
          1984,
          1491,
          2133,
          1591,
          2183,
          1525,
          1815,
          1701,
          2059,
          1678,
          2247,
          1770,
          2135,
          1374,
          1426,
          1599,
          1990,
          2051,
          1485,
          1404,
          1936,
          1897,
          1678,
          1449,
          2327,
          1964,
          1907,
          1772,
          1711,
          2302,
          1479,
          1749,
          1632,
          1797,
          2072,
          1670,
          1796,
          1654,
          1980,
          1536,
          1662,
          2070,
          1531,
          2113,
          1623,
          2152,
          1711,
          1503,
          1498,
          1423,
          1964,
          1696,
          2109,
          2142,
          1439,
          1476,
          1382,
          1519,
          1703,
          1513,
          1882,
          1400,
          2091,
          1570,
          2095,
          1479,
          1724,
          1952,
          1526,
          1629,
          2039,
          1542,
          1982,
          1385,
          1767,
          1784,
          1794,
          2159,
          1576,
          1579,
          1747,
          1917,
          1749,
          1564,
          1540,
          1780,
          1887,
          2054,
          1784,
          2085,
          1934,
          1545,
          1725,
          2143,
          1585,
          1628,
          1856,
          1512,
          1396,
          1703,
          1536,
          1555,
          1697,
          1842,
          1545,
          1679,
          1768,
          1573,
          1710,
          1840,
          1926,
          1672,
          1588,
          1718,
          1414,
          1890,
          1476,
          1476,
          2069,
          1367,
          1436,
          2026,
          1588,
          2280,
          1890,
          1649,
          1439,
          1387
        ],
        "WindowCenter": [
          645.0,
          650.0,
          651.0,
          647.0,
          651.0,
          652.0,
          651.0,
          651.0,
          651.0,
          650.0,
          650.0,
          647.0,
          652.0,
          651.0,
          651.0,
          632.0,
          655.0,
          651.0,
          649.0,
          650.0,
          649.0,
          650.0,
          648.0,
          650.0,
          653.0,
          651.0,
          650.0,
          651.0,
          651.0,
          651.0,
          648.0,
          653.0,
          651.0,
          649.0,
          649.0,
          646.0,
          651.0,
          648.0,
          652.0,
          649.0,
          651.0,
          648.0,
          654.0,
          653.0,
          653.0,
          650.0,
          653.0,
          652.0,
          649.0,
          646.0,
          646.0,
          650.0,
          652.0,
          647.0,
          647.0,
          649.0,
          651.0,
          646.0,
          648.0,
          652.0,
          647.0,
          643.0,
          650.0,
          648.0,
          652.0,
          651.0,
          651.0,
          652.0,
          651.0,
          653.0,
          649.0,
          648.0,
          649.0,
          650.0,
          651.0,
          649.0,
          648.0,
          652.0,
          649.0,
          650.0,
          649.0,
          650.0,
          649.0,
          650.0,
          650.0,
          650.0,
          652.0,
          651.0,
          646.0,
          646.0,
          644.0,
          643.0,
          649.0,
          648.0,
          649.0,
          650.0,
          652.0,
          650.0,
          652.0,
          651.0,
          648.0,
          651.0,
          652.0,
          651.0,
          649.0,
          650.0,
          651.0,
          648.0,
          650.0,
          648.0,
          650.0,
          648.0,
          650.0,
          648.0,
          648.0,
          649.0,
          649.0,
          649.0,
          651.0,
          650.0,
          649.0,
          651.0,
          650.0,
          651.0,
          653.0,
          650.0,
          646.0,
          649.0,
          652.0,
          649.0,
          647.0,
          650.0,
          651.0,
          650.0,
          650.0,
          651.0,
          652.0,
          647.0,
          653.0,
          650.0,
          652.0,
          652.0,
          651.0,
          651.0,
          651.0,
          652.0,
          651.0,
          651.0,
          651.0,
          652.0,
