{
  "aor": 0.020196829268292683,
  "aqi": 0.01823163567073171,
  "bids_meta": {
    "AcquisitionMatrixPE": 64,
    "AcquisitionNumber": 1,
    "AcquisitionTime": "14:35:10.562500",
    "BandwidthPerPixelPhaseEncode": 26.483,
    "BaseResolution": 64,
    "BodyPartExamined": "HEAD",
    "CogAtlasID": "TODO",
    "ConversionSoftware": "dcm2niix",
    "ConversionSoftwareVersion": "v1.0.20171017 GCC6.3.0",
    "DerivedVendorReportedEchoSpacing": 0.000590001,
    "DeviceSerialNumber": "35177",
    "DwellTime": 4.1e-06,
    "EchoTime": 0.027,
    "EffectiveEchoSpacing": 0.000590001,
    "FlipAngle": 90,
    "ImageOrientationPatientDICOM": [
      0.994855,
      0.0319663,
      -0.0961295,
      -0.020666,
      0.992996,
      0.116329
    ],
    "ImageType": [
      "ORIGINAL",
      "PRIMARY",
      "M",
      "ND",
      "NORM",
      "MOSAIC"
    ],
    "InPlanePhaseEncodingDirectionDICOM": "COL",
    "InstitutionAddress": "Scott_Ave._4525_St._Louis_MO_US_63110",
    "InstitutionName": "Washington_University",
    "InstitutionalDepartmentName": "Department",
    "MRAcquisitionType": "2D",
    "MagneticFieldStrength": 3,
    "Manufacturer": "Siemens",
    "ManufacturersModelName": "TrioTim",
    "Modality": "MR",
    "PartialFourier": 1,
    "PatientPosition": "HFS",
    "PercentPhaseFOV": 100,
    "PhaseEncodingDirection": "j-",
    "PhaseEncodingSteps": 64,
    "PhaseResolution": 1,
    "PixelBandwidth": 1905,
    "ProcedureStepDescription": "head_GREENE",
    "ProtocolName": "ep2d_bold_ad_movie_1B",
    "PulseSequenceDetails": "%SiemensSeq%_ep2d_bold",
    "ReceiveCoilName": "HeadMatrix",
    "ReconMatrixPE": 64,
    "RepetitionTime": 2.5,
    "SAR": 0.129669,
    "ScanOptions": "FS",
    "ScanningSequence": "EP",
    "SequenceName": "_epfid2d1_64",
    "SequenceVariant": "SK",
    "SeriesDescription": "ep2d_bold_ad_movie_1B",
    "SeriesNumber": 15,
    "ShimSetting": [
      -322,
      -19542,
      7963,
      277,
      -42,
      -397,
      482,
      138
    ],
    "SliceThickness": 4,
    "SliceTiming": [
      1.255,
      0,
      1.3325,
      0.0775,
      1.41,
      0.1575,
      1.49,
      0.235,
      1.5675,
      0.3125,
      1.6475,
      0.3925,
      1.725,
      0.47,
      1.8025,
      0.5475,
      1.8825,
      0.6275,
      1.96,
      0.705,
      2.0375,
      0.7825,
      2.1175,
      0.8625,
      2.195,
      0.94,
      2.275,
      1.02,
      2.3525,
      1.0975,
      2.43,
      1.175
    ],
    "SoftwareVersions": "syngo_MR_B17",
    "SpacingBetweenSlices": 4,
    "StationName": "MRC35177",
    "TaskName": "restmovieadaptive",
    "TotalReadoutTime": 0.0371701,
    "TxRefAmp": 348.397,
    "dataset": "ds000256",
    "dcmmeta_affine": [
      [
        -3.979421615600586,
        -0.08266405016183853,
        -0.39669913053512573,
        130.16146850585938
      ],
      [
        -0.12786512076854706,
        3.971982717514038,
        0.4549770951271057,
        -137.45339965820312
      ],
      [
        -0.38451796770095825,
        -0.4653174579143524,
        3.954190492630005,
        -23.851863861083984
      ],
      [
        0.0,
        0.0,
        0.0,
        1.0
      ]
    ],
    "dcmmeta_reorient_transform": [
      [
        0.0,
        -1.0,
        0.0,
        63.0
      ],
      [
        1.0,
        0.0,
        0.0,
        0.0
      ],
      [
        0.0,
        0.0,
        1.0,
        0.0
      ],
      [
        0.0,
        0.0,
        0.0,
        1.0
      ]
    ],
    "dcmmeta_shape": [
      64,
      64,
      32,
      164
    ],
    "dcmmeta_slice_dim": 2,
    "dcmmeta_version": 0.6,
    "global": {
      "const": {
        "AccessionNumber": ".",
        "AcquisitionMatrix": [
          64,
          0,
          0,
          64
        ],
        "AngioFlag": "N",
        "BitsAllocated": 16,
        "BitsStored": 12,
        "BodyPartExamined": "HEAD",
        "Columns": 384,
        "DeidentificationMethodCodeSequence": [
          {
            "CodeMeaning": "XNAT Edit Script",
            "CodeValue": "625500",
            "CodingSchemeDesignator": "XNAT",
            "CodingSchemeVersion": "0.1"
          }
        ],
        "EchoNumbers": 1,
        "EchoTime": 27.0,
        "EchoTrainLength": 1,
        "FlipAngle": 90.0,
        "HighBit": 11,
        "ImageOrientationPatient": [
          0.99485540511068,
          0.03196627955712,
          -0.096129495439,
          -0.0206660121588,
          0.99299566701306,
          0.11632936531563
        ],
        "ImagePositionPatient": [
          -748.43484231924,
          -768.75715115609,
          -66.094779819923
        ],
        "ImageType": [
          "ORIGINAL",
          "PRIMARY",
          "M",
          "ND",
          "NORM",
          "MOSAIC"
        ],
        "ImagedNucleus": "1H",
        "ImagingFrequency": 123.255211,
        "InPlanePhaseEncodingDirection": "COL",
        "MRAcquisitionType": "2D",
        "MagneticFieldStrength": 3.0,
        "Manufacturer": "SIEMENS",
        "ManufacturerModelName": "TrioTim",
        "Modality": "MR",
        "NumberOfAverages": 1.0,
        "NumberOfPhaseEncodingSteps": 64,
        "PercentPhaseFieldOfView": 100.0,
        "PercentSampling": 100.0,
        "PerformedProcedureStepStartTime": "133402.968000",
        "PhotometricInterpretation": "MONOCHROME2",
        "PixelBandwidth": 1905.0,
        "PixelRepresentation": 0,
        "PixelSpacing": [
          4.0,
          4.0
        ],
        "PositionReferenceIndicator": "",
        "ProtocolName": "ep2d_bold_ad_movie_1B",
        "RepetitionTime": 2500.0,
        "Rows": 384,
        "SAR": 0.12966852745132,
        "SamplesPerPixel": 1,
        "ScanOptions": "FS",
        "ScanningSequence": "EP",
        "SequenceName": "*epfid2d1_64",
        "SequenceVariant": "SK",
        "SeriesDescription": "ep2d_bold_ad_movie_1B",
        "SeriesNumber": 15,
        "SeriesTime": "143512.750000",
        "SliceLocation": -52.121979801867,
        "SliceThickness": 4.0,
        "SmallestImagePixelValue": 0,
        "SoftwareVersions": "syngo MR B17",
        "SpacingBetweenSlices": 3.9999996447968,
        "SpecificCharacterSet": "ISO_IR 100",
        "StudyID": "1",
        "StudyTime": "133402.921000",
        "TransmitCoilName": "Body",
        "VariableFlipAngleFlag": "N",
        "WindowCenterWidthExplanation": "Algo1",
        "dBdt": 0.0
      },
      "slices": {}
    },
    "modality": "bold",
    "subject_id": "CTS201",
    "task_id": "restmovieadaptive",
    "time": {
      "samples": {
        "AcquisitionNumber": [
          1,
          2,
          3,
          4,
          5,
          6,
          7,
          8,
          9,
          10,
          11,
          12,
          13,
          14,
          15,
          16,
          17,
          18,
          19,
          20,
          21,
          22,
          23,
          24,
          25,
          26,
          27,
          28,
          29,
          30,
          31,
          32,
          33,
          34,
          35,
          36,
          37,
          38,
          39,
          40,
          41,
          42,
          43,
          44,
          45,
          46,
          47,
          48,
          49,
          50,
          51,
          52,
          53,
          54,
          55,
          56,
          57,
          58,
          59,
          60,
          61,
          62,
          63,
          64,
          65,
          66,
          67,
          68,
          69,
          70,
          71,
          72,
          73,
          74,
          75,
          76,
          77,
          78,
          79,
          80,
          81,
          82,
          83,
          84,
          85,
          86,
          87,
          88,
          89,
          90,
          91,
          92,
          93,
          94,
          95,
          96,
          97,
          98,
          99,
          100,
          101,
          102,
          103,
          104,
          105,
          106,
          107,
          108,
          109,
          110,
          111,
          112,
          113,
          114,
          115,
          116,
          117,
          118,
          119,
          120,
          121,
          122,
          123,
          124,
          125,
          126,
          127,
          128,
          129,
          130,
          131,
          132,
          133,
          134,
          135,
          136,
          137,
          138,
          139,
          140,
          141,
          142,
          143,
          144,
          145,
          146,
          147,
          148,
          149,
          150,
          151,
          152,
          153,
          154,
          155,
          156,
          157,
          158,
          159,
          160,
          161,
          162,
          163,
          164
        ],
        "AcquisitionTime": [
          "143510.562500",
          "143513.072500",
          "143515.582500",
          "143518.092500",
          "143520.602500",
          "143523.112500",
          "143525.622500",
          "143528.132500",
          "143530.642500",
          "143533.152500",
          "143535.662500",
          "143538.172500",
          "143540.682500",
          "143543.192500",
          "143545.702500",
          "143548.212500",
          "143550.722500",
          "143553.232500",
          "143555.742500",
          "143558.252500",
          "143600.762500",
          "143603.272500",
          "143605.782500",
          "143608.292500",
          "143610.802500",
          "143613.312500",
          "143615.822500",
          "143618.332500",
          "143620.842500",
          "143623.352500",
          "143625.862500",
          "143628.372500",
          "143630.882500",
          "143633.392500",
          "143635.902500",
          "143638.412500",
          "143640.922500",
          "143643.432500",
          "143645.942500",
          "143648.452500",
          "143650.962500",
          "143653.472500",
          "143655.982500",
          "143658.492500",
          "143701.002500",
          "143703.512500",
          "143706.022500",
          "143708.532500",
          "143711.042500",
          "143713.552500",
          "143716.065000",
          "143718.575000",
          "143721.085000",
          "143723.595000",
          "143726.105000",
          "143728.615000",
          "143731.125000",
          "143733.635000",
          "143736.145000",
          "143738.655000",
          "143741.165000",
          "143743.675000",
          "143746.185000",
          "143748.695000",
          "143751.205000",
          "143753.715000",
          "143756.225000",
          "143758.735000",
          "143801.245000",
          "143803.755000",
          "143806.265000",
          "143808.775000",
          "143811.285000",
          "143813.795000",
          "143816.305000",
          "143818.815000",
          "143821.325000",
          "143823.835000",
          "143826.345000",
          "143828.855000",
          "143831.365000",
          "143833.875000",
          "143836.385000",
          "143838.895000",
          "143841.405000",
          "143843.915000",
          "143846.425000",
          "143848.935000",
          "143851.445000",
          "143853.955000",
          "143856.465000",
          "143858.975000",
          "143901.485000",
          "143903.995000",
          "143906.505000",
          "143909.015000",
          "143911.525000",
          "143914.035000",
          "143916.545000",
          "143919.055000",
          "143921.565000",
          "143924.075000",
          "143926.585000",
          "143929.095000",
          "143931.605000",
          "143934.115000",
          "143936.625000",
          "143939.135000",
          "143941.645000",
          "143944.155000",
          "143946.665000",
          "143949.175000",
          "143951.687500",
          "143954.197500",
          "143956.707500",
          "143959.217500",
          "144001.727500",
          "144004.237500",
          "144006.747500",
          "144009.257500",
          "144011.767500",
          "144014.277500",
          "144016.787500",
          "144019.297500",
          "144021.807500",
          "144024.317500",
          "144026.827500",
          "144029.337500",
          "144031.847500",
          "144034.357500",
          "144036.867500",
          "144039.377500",
          "144041.887500",
          "144044.397500",
          "144046.907500",
          "144049.417500",
          "144051.927500",
          "144054.437500",
          "144056.947500",
          "144059.457500",
          "144101.967500",
          "144104.477500",
          "144106.987500",
          "144109.497500",
          "144112.007500",
          "144114.517500",
          "144117.027500",
          "144119.537500",
          "144122.047500",
          "144124.557500",
          "144127.067500",
          "144129.577500",
          "144132.087500",
          "144134.597500",
          "144137.107500",
          "144139.617500",
          "144142.127500",
          "144144.637500",
          "144147.147500",
          "144149.657500",
          "144152.167500",
          "144154.677500",
          "144157.187500",
          "144159.697500"
        ],
        "ContentTime": [
          "143512.750000",
          "143515.250000",
          "143517.750000",
          "143520.250000",
          "143522.750000",
          "143525.250000",
          "143527.750000",
          "143530.250000",
          "143532.750000",
          "143535.250000",
          "143537.750000",
          "143540.250000",
          "143542.750000",
          "143545.250000",
          "143547.750000",
          "143550.250000",
          "143552.750000",
          "143555.250000",
          "143557.750000",
          "143600.250000",
          "143602.750000",
          "143605.250000",
          "143607.750000",
          "143610.250000",
          "143612.750000",
          "143615.250000",
          "143617.750000",
          "143620.250000",
          "143622.750000",
          "143625.250000",
          "143627.750000",
          "143630.250000",
          "143632.750000",
          "143635.250000",
          "143637.750000",
          "143640.250000",
          "143642.750000",
          "143645.250000",
          "143647.750000",
          "143650.250000",
          "143652.750000",
          "143655.250000",
          "143657.750000",
          "143700.250000",
          "143702.750000",
          "143705.250000",
          "143707.750000",
          "143710.250000",
          "143712.750000",
          "143715.250000",
          "143717.750000",
          "143720.250000",
          "143722.750000",
          "143725.250000",
          "143727.750000",
          "143730.250000",
          "143732.750000",
          "143735.250000",
          "143737.750000",
          "143740.250000",
          "143742.750000",
          "143745.250000",
          "143747.750000",
          "143750.250000",
          "143752.750000",
          "143755.250000",
          "143757.750000",
          "143800.250000",
          "143802.750000",
          "143805.250000",
          "143807.750000",
          "143810.250000",
          "143812.750000",
          "143815.250000",
          "143817.750000",
          "143820.250000",
          "143822.750000",
          "143825.250000",
          "143827.750000",
          "143830.250000",
          "143832.750000",
          "143835.250000",
          "143837.750000",
          "143840.250000",
          "143842.750000",
          "143845.250000",
          "143847.750000",
          "143850.250000",
          "143852.750000",
          "143855.250000",
          "143857.750000",
          "143900.250000",
          "143902.750000",
          "143905.250000",
          "143907.750000",
          "143910.250000",
          "143912.750000",
          "143915.250000",
          "143917.750000",
          "143920.250000",
          "143922.750000",
          "143925.250000",
          "143927.750000",
          "143930.250000",
          "143932.750000",
          "143935.250000",
          "143937.750000",
          "143940.250000",
          "143942.750000",
          "143945.250000",
          "143947.750000",
          "143950.250000",
          "143952.750000",
          "143955.250000",
          "143957.750000",
          "144000.250000",
          "144002.750000",
          "144005.250000",
          "144007.750000",
          "144010.250000",
          "144012.750000",
          "144015.250000",
          "144017.750000",
          "144020.250000",
          "144022.750000",
          "144025.250000",
          "144027.750000",
          "144030.250000",
          "144032.750000",
          "144035.250000",
          "144037.750000",
          "144040.250000",
          "144042.750000",
          "144045.250000",
          "144047.750000",
          "144050.250000",
          "144052.750000",
          "144055.250000",
          "144057.750000",
          "144100.250000",
          "144102.750000",
          "144105.250000",
          "144107.750000",
          "144110.250000",
          "144112.750000",
          "144115.250000",
          "144117.750000",
          "144120.250000",
          "144122.750000",
          "144125.250000",
          "144127.750000",
          "144130.250000",
          "144132.750000",
          "144135.250000",
          "144137.750000",
          "144140.250000",
          "144142.750000",
          "144145.250000",
          "144147.750000",
          "144150.250000",
          "144152.750000",
          "144155.250000",
          "144157.750000",
          "144200.000000"
        ],
        "InstanceCreationTime": [
          "143512.750000",
          "143515.250000",
          "143517.750000",
          "143520.250000",
          "143522.750000",
          "143525.250000",
          "143527.750000",
          "143530.250000",
          "143532.750000",
          "143535.250000",
          "143537.750000",
          "143540.250000",
          "143542.750000",
          "143545.250000",
          "143547.750000",
          "143550.250000",
          "143552.750000",
          "143555.250000",
          "143557.750000",
          "143600.250000",
          "143602.750000",
          "143605.250000",
          "143607.750000",
          "143610.250000",
          "143612.750000",
          "143615.250000",
          "143617.750000",
          "143620.250000",
          "143622.750000",
          "143625.250000",
          "143627.750000",
          "143630.250000",
          "143632.750000",
          "143635.250000",
          "143637.750000",
          "143640.250000",
          "143642.750000",
          "143645.250000",
          "143647.750000",
          "143650.250000",
          "143652.750000",
          "143655.250000",
          "143657.750000",
          "143700.250000",
          "143702.750000",
          "143705.250000",
          "143707.750000",
          "143710.250000",
          "143712.750000",
          "143715.250000",
          "143717.750000",
          "143720.250000",
          "143722.750000",
          "143725.250000",
          "143727.750000",
          "143730.250000",
          "143732.750000",
          "143735.250000",
          "143737.750000",
          "143740.250000",
          "143742.750000",
          "143745.250000",
          "143747.750000",
          "143750.250000",
          "143752.750000",
          "143755.250000",
          "143757.750000",
          "143800.250000",
          "143802.750000",
          "143805.250000",
          "143807.750000",
          "143810.250000",
          "143812.750000",
          "143815.250000",
          "143817.750000",
          "143820.250000",
          "143822.750000",
          "143825.250000",
          "143827.750000",
          "143830.250000",
          "143832.750000",
          "143835.250000",
          "143837.750000",
          "143840.250000",
          "143842.750000",
          "143845.250000",
          "143847.750000",
          "143850.250000",
          "143852.750000",
          "143855.250000",
          "143857.750000",
          "143900.250000",
          "143902.750000",
          "143905.250000",
          "143907.750000",
          "143910.250000",
          "143912.750000",
          "143915.250000",
          "143917.750000",
          "143920.250000",
          "143922.750000",
          "143925.250000",
          "143927.750000",
          "143930.250000",
          "143932.750000",
          "143935.250000",
          "143937.750000",
          "143940.250000",
          "143942.750000",
          "143945.250000",
          "143947.750000",
          "143950.250000",
          "143952.750000",
          "143955.250000",
          "143957.750000",
          "144000.250000",
          "144002.750000",
          "144005.250000",
          "144007.750000",
          "144010.250000",
          "144012.750000",
          "144015.250000",
          "144017.750000",
          "144020.250000",
          "144022.750000",
          "144025.250000",
          "144027.750000",
          "144030.250000",
          "144032.750000",
          "144035.250000",
          "144037.750000",
          "144040.250000",
          "144042.750000",
          "144045.250000",
          "144047.750000",
          "144050.250000",
          "144052.750000",
          "144055.250000",
          "144057.750000",
          "144100.250000",
          "144102.750000",
          "144105.250000",
          "144107.750000",
          "144110.250000",
          "144112.750000",
          "144115.250000",
          "144117.750000",
          "144120.250000",
          "144122.750000",
          "144125.250000",
          "144127.750000",
          "144130.250000",
          "144132.750000",
          "144135.250000",
          "144137.750000",
          "144140.250000",
          "144142.750000",
          "144145.250000",
          "144147.750000",
          "144150.250000",
          "144152.750000",
          "144155.250000",
          "144157.750000",
          "144200.000000"
        ],
        "InstanceNumber": [
          1,
          2,
          3,
          4,
          5,
          6,
          7,
          8,
          9,
          10,
          11,
          12,
          13,
          14,
          15,
          16,
          17,
          18,
          19,
          20,
          21,
          22,
          23,
          24,
          25,
          26,
          27,
          28,
          29,
          30,
          31,
          32,
          33,
          34,
          35,
          36,
          37,
          38,
          39,
          40,
          41,
          42,
          43,
          44,
          45,
          46,
          47,
          48,
          49,
          50,
          51,
          52,
          53,
          54,
          55,
          56,
          57,
          58,
          59,
          60,
          61,
          62,
          63,
          64,
          65,
          66,
          67,
          68,
          69,
          70,
          71,
          72,
          73,
          74,
          75,
          76,
          77,
          78,
          79,
          80,
          81,
          82,
          83,
          84,
          85,
          86,
          87,
          88,
          89,
          90,
          91,
          92,
          93,
          94,
          95,
          96,
          97,
          98,
          99,
          100,
          101,
          102,
          103,
          104,
          105,
          106,
          107,
          108,
          109,
          110,
          111,
          112,
          113,
          114,
          115,
          116,
          117,
          118,
          119,
          120,
          121,
          122,
          123,
          124,
          125,
          126,
          127,
          128,
          129,
          130,
          131,
          132,
          133,
          134,
          135,
          136,
          137,
          138,
          139,
          140,
          141,
          142,
          143,
          144,
          145,
          146,
          147,
          148,
          149,
          150,
          151,
          152,
          153,
          154,
          155,
          156,
          157,
          158,
          159,
          160,
          161,
          162,
          163,
          164
        ],
        "LargestImagePixelValue": [
          2105,
          2115,
          1904,
          1970,
          1670,
          1471,
          1570,
          1796,
          1839,
          2176,
          1612,
          1652,
          1854,
          1992,
          1626,
          1737,
          2298,
          2218,
          2278,
          1590,
          1710,
          1786,
          1814,
          1979,
          1816,
          2130,
          1705,
          1633,
          1885,
          2095,
          1521,
          1598,
          1867,
          2061,
          1572,
          1762,
          1948,
          2175,
          1671,
          1741,
          2003,
          1795,
          1711,
          1962,
          1754,
          1753,
          1604,
          2218,
          1783,
          1711,
          2294,
          1857,
          1519,
          1603,
          1818,
          1918,
          1780,
          1931,
          2310,
          2183,
          1837,
          1623,
          1965,
          2037,
          1465,
          1741,
          1745,
          1910,
          2087,
          1858,
          1495,
          1457,
          1687,
          1687,
          1750,
          2098,
          1652,
          1810,
          2132,
          1676,
          2169,
          1727,
          1658,
          1936,
          1938,
          1813,
          1808,
          2044,
          1658,
          2047,
          1636,
          1811,
          2251,
          1614,
          2055,
          1888,
          2171,
          2371,
          1471,
          1920,
          1882,
          1442,
          1789,
          2313,
          1697,
          1614,
          2319,
          2007,
          1838,
          1434,
          1665,
          1577,
          1721,
          1466,
          1962,
          1957,
          1876,
          1680,
          2282,
          2166,
          1700,
          1986,
          1988,
          2100,
          1840,
          1519,
          1616,
          1672,
          1787,
          1855,
          1847,
          2048,
          2198,
          1801,
          1805,
          2011,
          1809,
          2057,
          1736,
          1829,
          1777,
          1731,
          2146,
          1588,
          1703,
          2298,
          1552,
          1794,
          1956,
          1591,
          1369,
          1672,
          2199,
          2474,
          1896,
          1661,
          1901,
          1480,
          1614,
          2040,
          1619,
          1480,
          1494,
          1984
        ],
        "WindowCenter": [
          656.0,
          655.0,
          654.0,
          654.0,
          655.0,
          655.0,
          656.0,
          658.0,
          657.0,
          656.0,
          655.0,
          655.0,
          657.0,
          656.0,
          658.0,
          656.0,
          657.0,
          658.0,
          657.0,
          656.0,
          657.0,
          657.0,
          655.0,
          656.0,
          656.0,
          658.0,
          657.0,
          656.0,
          655.0,
          657.0,
          655.0,
          655.0,
          657.0,
          658.0,
          655.0,
          657.0,
          656.0,
          656.0,
          657.0,
          658.0,
          656.0,
          656.0,
          655.0,
          658.0,
          658.0,
          657.0,
          656.0,
          657.0,
          656.0,
          655.0,
          658.0,
          656.0,
          656.0,
          656.0,
          657.0,
          656.0,
          658.0,
          657.0,
          658.0,
          657.0,
          656.0,
          655.0,
          656.0,
          656.0,
          655.0,
          655.0,
          655.0,
          656.0,
          657.0,
          655.0,
          655.0,
          656.0,
          657.0,
          657.0,
          656.0,
          657.0,
          655.0,
          657.0,
          658.0,
          657.0,
          658.0,
          655.0,
          655.0,
          655.0,
          656.0,
          657.0,
          656.0,
          656.0,
          657.0,
          656.0,
          657.0,
          656.0,
          658.0,
          656.0,
          657.0,
          654.0,
          657.0,
          657.0,
          654.0,
          658.0,
          657.0,
          656.0,
          657.0,
          657.0,
          656.0,
          655.0,
          658.0,
          656.0,
          654.0,
          655.0,
          655.0,
          655.0,
          656.0,
          654.0,
          655.0,
          655.0,
          654.0,
          654.0,
          656.0,
          655.0,
          653.0,
          655.0,
          655.0,
          655.0,
          655.0,
          655.0,
          656.0,
          655.0,
          655.0,
          652.0,
          656.0,
          656.0,
          657.0,
          655.0,
          655.0,
          656.0,
          655.0,
          655.0,
          654.0,
          654.0,
          655.0,
          655.0,
          656.0,
          656.0,
          656.0,
          655.0,
          657.0,
          654.0,
          657.0,
