{
  "aor": 0.0008779754601226995,
  "aqi": 0.0032876069325153373,
  "bids_meta": {
    "AcquisitionMatrixPE": 64,
    "AcquisitionNumber": 1,
    "AcquisitionTime": "13:14:53.662500",
    "BandwidthPerPixelPhaseEncode": 26.483,
    "BaseResolution": 64,
    "BodyPartExamined": "HEAD",
    "CogAtlasID": "TODO",
    "ConversionSoftware": "dcm2niix",
    "ConversionSoftwareVersion": "v1.0.20171017 GCC6.3.0",
    "DerivedVendorReportedEchoSpacing": 0.000590001,
    "DeviceSerialNumber": "35177",
    "EchoTime": 0.027,
    "EffectiveEchoSpacing": 0.000590001,
    "FlipAngle": 90,
    "ImageOrientationPatientDICOM": [
      0.996142,
      0.0190981,
      0.0856549,
      -0.0197579,
      0.999781,
      0.00686144
    ],
    "ImageType": [
      "ORIGINAL",
      "PRIMARY",
      "M",
      "ND",
      "NORM",
      "MOSAIC"
    ],
    "InPlanePhaseEncodingDirectionDICOM": "COL",
    "InstitutionAddress": "Scott_Ave._4525_St._Louis_MO_US_63110",
    "InstitutionName": "Washington_University",
    "MRAcquisitionType": "2D",
    "MagneticFieldStrength": 3,
    "Manufacturer": "Siemens",
    "ManufacturersModelName": "TrioTim",
    "Modality": "MR",
    "PartialFourier": 1,
    "PatientPosition": "HFS",
    "PercentPhaseFOV": 100,
    "PhaseEncodingDirection": "j-",
    "PhaseEncodingSteps": 64,
    "PhaseResolution": 1,
    "PixelBandwidth": 1905,
    "ProcedureStepDescription": "head_GREENE",
    "ProtocolName": "ep2d_bold_rest2",
    "PulseSequenceDetails": "%SiemensSeq%_ep2d_bold",
    "ReceiveCoilName": "HeadMatrix",
    "ReconMatrixPE": 64,
    "RepetitionTime": 2.5,
    "SAR": 0.125626,
    "ScanOptions": "FS",
    "ScanningSequence": "EP",
    "SequenceName": "_epfid2d1_64",
    "SequenceVariant": "SK",
    "SeriesDescription": "ep2d_bold_rest2",
    "SeriesNumber": 9,
    "ShimSetting": [
      -200,
      -19505,
      7909,
      196,
      -100,
      -513,
      320,
      91
    ],
    "SliceThickness": 4,
    "SliceTiming": [
      1.255,
      0,
      1.3325,
      0.0775,
      1.4125,
      0.1575,
      1.49,
      0.235,
      1.5675,
      0.315,
      1.6475,
      0.3925,
      1.725,
      0.47,
      1.805,
      0.55,
      1.8825,
      0.6275,
      1.96,
      0.705,
      2.04,
      0.785,
      2.1175,
      0.8625,
      2.195,
      0.94,
      2.275,
      1.02,
      2.3525,
      1.0975,
      2.4325,
      1.1775
    ],
    "SoftwareVersions": "syngo_MR_B17",
    "SpacingBetweenSlices": 4,
    "StationName": "MRC35177",
    "TaskName": "restmovienofeedback",
    "TotalReadoutTime": 0.0371701,
    "TxRefAmp": 324.939,
    "dataset": "ds000256",
    "dcmmeta_affine": [
      [
        -3.9845681190490723,
        -0.07903160154819489,
        0.3420203924179077,
        132.48117065429688
      ],
      [
        -0.07639239728450775,
        3.999124050140381,
        0.034109316766262054,
        -127.92643737792969
      ],
      [
        0.3426195979118347,
        -0.027445759624242783,
        3.9852046966552734,
        -55.83945846557617
      ],
      [
        0.0,
        0.0,
        0.0,
        1.0
      ]
    ],
    "dcmmeta_reorient_transform": [
      [
        0.0,
        -1.0,
        0.0,
        63.0
      ],
      [
        1.0,
        0.0,
        0.0,
        0.0
      ],
      [
        0.0,
        0.0,
        1.0,
        0.0
      ],
      [
        0.0,
        0.0,
        0.0,
        1.0
      ]
    ],
    "dcmmeta_shape": [
      64,
      64,
      32,
      164
    ],
    "dcmmeta_slice_dim": 2,
    "dcmmeta_version": 0.6,
    "global": {
      "const": {
        "AccessionNumber": ".",
        "AcquisitionMatrix": [
          64,
          0,
          0,
          64
        ],
        "AngioFlag": "N",
        "BitsAllocated": 16,
        "BitsStored": 12,
        "BodyPartExamined": "HEAD",
        "Columns": 384,
        "DeidentificationMethodCodeSequence": [
          {
            "CodeMeaning": "XNAT Edit Script",
            "CodeValue": "625500",
            "CodingSchemeDesignator": "XNAT",
            "CodingSchemeVersion": "0.1"
          }
        ],
        "EchoNumbers": 1,
        "EchoTime": 27.0,
        "EchoTrainLength": 1,
        "FlipAngle": 90.0,
        "HighBit": 11,
        "ImageOrientationPatient": [
          0.996142,
          0.0190981,
          0.0856549,
          -0.0197579,
          0.999781,
          0.00686144
        ],
        "ImagePositionPatient": [
          -752.388,
          -776.101,
          -116.779
        ],
        "ImageType": [
          "ORIGINAL",
          "PRIMARY",
          "M",
          "ND",
          "NORM",
          "MOSAIC"
        ],
        "ImagedNucleus": "1H",
        "ImagingFrequency": 123.256,
        "InPlanePhaseEncodingDirection": "COL",
        "MRAcquisitionType": "2D",
        "MagneticFieldStrength": 3.0,
        "Manufacturer": "SIEMENS",
        "ManufacturerModelName": "TrioTim",
        "Modality": "MR",
        "NumberOfAverages": 1.0,
        "NumberOfFrames": 1,
        "NumberOfPhaseEncodingSteps": 64,
        "PercentPhaseFieldOfView": 100.0,
        "PercentSampling": 100.0,
        "PerformedProcedureStepStartTime": "124343.234000",
        "PhotometricInterpretation": "MONOCHROME2",
        "PixelBandwidth": 1905.0,
        "PixelRepresentation": 0,
        "PixelSpacing": [
          4.0,
          4.0
        ],
        "ProtocolName": "ep2d_bold_rest2",
        "RepetitionTime": 2500.0,
        "Rows": 384,
        "SAR": 0.125626,
        "SamplesPerPixel": 1,
        "ScanOptions": "FS",
        "ScanningSequence": "EP",
        "SequenceName": "*epfid2d1_64",
        "SequenceVariant": "SK",
        "SeriesDescription": "ep2d_bold_rest2",
        "SeriesNumber": 9,
        "SeriesTime": "131455.656000",
        "SliceLocation": -45.3956,
        "SliceThickness": 4.0,
        "SoftwareVersions": "syngo MR B17",
        "SpacingBetweenSlices": 4.0,
        "SpecificCharacterSet": "ISO_IR 100",
        "StudyID": "2",
        "StudyTime": "124343.203000",
        "TransmitCoilName": "Body",
        "VariableFlipAngleFlag": "N",
        "dBdt": 0.0
      },
      "slices": {}
    },
    "modality": "bold",
    "subject_id": "CTS215",
    "task_id": "restmovienofeedback",
    "time": {
      "samples": {
        "AcquisitionNumber": [
          1,
          2,
          3,
          4,
          5,
          6,
          7,
          8,
          9,
          10,
          11,
          12,
          13,
          14,
          15,
          16,
          17,
          18,
          19,
          20,
          21,
          22,
          23,
          24,
          25,
          26,
          27,
          28,
          29,
          30,
          31,
          32,
          33,
          34,
          35,
          36,
          37,
          38,
          39,
          40,
          41,
          42,
          43,
          44,
          45,
          46,
          47,
          48,
          49,
          50,
          51,
          52,
          53,
          54,
          55,
          56,
          57,
          58,
          59,
          60,
          61,
          62,
          63,
          64,
          65,
          66,
          67,
          68,
          69,
          70,
          71,
          72,
          73,
          74,
          75,
          76,
          77,
          78,
          79,
          80,
          81,
          82,
          83,
          84,
          85,
          86,
          87,
          88,
          89,
          90,
          91,
          92,
          93,
          94,
          95,
          96,
          97,
          98,
          99,
          100,
          101,
          102,
          103,
          104,
          105,
          106,
          107,
          108,
          109,
          110,
          111,
          112,
          113,
          114,
          115,
          116,
          117,
          118,
          119,
          120,
          121,
          122,
          123,
          124,
          125,
          126,
          127,
          128,
          129,
          130,
          131,
          132,
          133,
          134,
          135,
          136,
          137,
          138,
          139,
          140,
          141,
          142,
          143,
          144,
          145,
          146,
          147,
          148,
          149,
          150,
          151,
          152,
          153,
          154,
          155,
          156,
          157,
          158,
          159,
          160,
          161,
          162,
          163,
          164
        ],
        "AcquisitionTime": [
          "131453.662500",
          "131456.172500",
          "131458.682500",
          "131501.192500",
          "131503.702500",
          "131506.212500",
          "131508.722500",
          "131511.232500",
          "131513.742500",
          "131516.252500",
          "131518.762500",
          "131521.272500",
          "131523.782500",
          "131526.292500",
          "131528.802500",
          "131531.312500",
          "131533.822500",
          "131536.332500",
          "131538.842500",
          "131541.352500",
          "131543.862500",
          "131546.372500",
          "131548.882500",
          "131551.392500",
          "131553.902500",
          "131556.412500",
          "131558.922500",
          "131601.432500",
          "131603.942500",
          "131606.452500",
          "131608.962500",
          "131611.472500",
          "131613.982500",
          "131616.495000",
          "131619.005000",
          "131621.515000",
          "131624.025000",
          "131626.535000",
          "131629.045000",
          "131631.555000",
          "131634.065000",
          "131636.575000",
          "131639.085000",
          "131641.595000",
          "131644.105000",
          "131646.615000",
          "131649.125000",
          "131651.635000",
          "131654.145000",
          "131656.655000",
          "131659.165000",
          "131701.675000",
          "131704.185000",
          "131706.695000",
          "131709.205000",
          "131711.715000",
          "131714.225000",
          "131716.735000",
          "131719.245000",
          "131721.755000",
          "131724.265000",
          "131726.775000",
          "131729.285000",
          "131731.795000",
          "131734.305000",
          "131736.815000",
          "131739.325000",
          "131741.835000",
          "131744.345000",
          "131746.855000",
          "131749.365000",
          "131751.875000",
          "131754.385000",
          "131756.895000",
          "131759.405000",
          "131801.915000",
          "131804.425000",
          "131806.935000",
          "131809.445000",
          "131811.955000",
          "131814.465000",
          "131816.975000",
          "131819.485000",
          "131821.995000",
          "131824.505000",
          "131827.015000",
          "131829.525000",
          "131832.035000",
          "131834.545000",
          "131837.055000",
          "131839.565000",
          "131842.075000",
          "131844.585000",
          "131847.095000",
          "131849.605000",
          "131852.117500",
          "131854.627500",
          "131857.137500",
          "131859.647500",
          "131902.157500",
          "131904.667500",
          "131907.177500",
          "131909.687500",
          "131912.197500",
          "131914.707500",
          "131917.217500",
          "131919.727500",
          "131922.237500",
          "131924.747500",
          "131927.257500",
          "131929.767500",
          "131932.277500",
          "131934.787500",
          "131937.297500",
          "131939.807500",
          "131942.317500",
          "131944.827500",
          "131947.337500",
          "131949.847500",
          "131952.357500",
          "131954.867500",
          "131957.377500",
          "131959.887500",
          "132002.397500",
          "132004.907500",
          "132007.417500",
          "132009.927500",
          "132012.437500",
          "132014.947500",
          "132017.457500",
          "132019.967500",
          "132022.477500",
          "132024.987500",
          "132027.497500",
          "132030.007500",
          "132032.517500",
          "132035.027500",
          "132037.537500",
          "132040.047500",
          "132042.557500",
          "132045.067500",
          "132047.577500",
          "132050.087500",
          "132052.597500",
          "132055.107500",
          "132057.617500",
          "132100.127500",
          "132102.637500",
          "132105.147500",
          "132107.657500",
          "132110.167500",
          "132112.677500",
          "132115.187500",
          "132117.697500",
          "132120.207500",
          "132122.717500",
          "132125.227500",
          "132127.737500",
          "132130.250000",
          "132132.760000",
          "132135.270000",
          "132137.780000",
          "132140.290000",
          "132142.800000"
        ],
        "ContentTime": [
          "131455.671000",
          "131458.156000",
          "131500.656000",
          "131503.156000",
          "131505.656000",
          "131508.156000",
          "131510.656000",
          "131513.156000",
          "131515.656000",
          "131518.156000",
          "131520.656000",
          "131523.156000",
          "131525.656000",
          "131528.156000",
          "131530.656000",
          "131533.156000",
          "131535.656000",
          "131538.156000",
          "131540.656000",
          "131543.156000",
          "131545.656000",
          "131548.156000",
          "131550.656000",
          "131553.156000",
          "131555.656000",
          "131558.156000",
          "131600.656000",
          "131603.156000",
          "131605.656000",
          "131608.156000",
          "131610.656000",
          "131613.156000",
          "131615.656000",
          "131618.156000",
          "131620.656000",
          "131623.156000",
          "131625.656000",
          "131628.156000",
          "131630.656000",
          "131633.156000",
          "131635.656000",
          "131638.156000",
          "131640.656000",
          "131643.156000",
          "131645.656000",
          "131648.156000",
          "131650.656000",
          "131653.156000",
          "131655.656000",
          "131658.156000",
          "131700.656000",
          "131703.156000",
          "131705.656000",
          "131708.156000",
          "131710.656000",
          "131713.156000",
          "131715.656000",
          "131718.156000",
          "131720.656000",
          "131723.156000",
          "131725.656000",
          "131728.156000",
          "131730.656000",
          "131733.156000",
          "131735.656000",
          "131738.156000",
          "131740.656000",
          "131743.156000",
          "131745.656000",
          "131748.156000",
          "131750.656000",
          "131753.156000",
          "131755.656000",
          "131758.156000",
          "131800.656000",
          "131803.156000",
          "131805.656000",
          "131808.156000",
          "131810.656000",
          "131813.156000",
          "131815.656000",
          "131818.156000",
          "131820.656000",
          "131823.156000",
          "131825.656000",
          "131828.156000",
          "131830.656000",
          "131833.156000",
          "131835.656000",
          "131838.156000",
          "131840.656000",
          "131843.156000",
          "131845.656000",
          "131848.156000",
          "131850.656000",
          "131853.156000",
          "131855.656000",
          "131858.156000",
          "131900.656000",
          "131903.156000",
          "131905.656000",
          "131908.156000",
          "131910.656000",
          "131913.156000",
          "131915.656000",
          "131918.156000",
          "131920.656000",
          "131923.156000",
          "131925.656000",
          "131928.156000",
          "131930.656000",
          "131933.156000",
          "131935.656000",
          "131938.156000",
          "131940.656000",
          "131943.156000",
          "131945.656000",
          "131948.156000",
          "131950.656000",
          "131953.156000",
          "131955.656000",
          "131958.156000",
          "132000.656000",
          "132003.156000",
          "132005.656000",
          "132008.156000",
          "132010.656000",
          "132013.156000",
          "132015.656000",
          "132018.156000",
          "132020.656000",
          "132023.156000",
          "132025.656000",
          "132028.156000",
          "132030.656000",
          "132033.156000",
          "132035.656000",
          "132038.156000",
          "132040.656000",
          "132043.156000",
          "132045.656000",
          "132048.156000",
          "132050.656000",
          "132053.156000",
          "132055.656000",
          "132058.156000",
          "132100.656000",
          "132103.156000",
          "132105.656000",
          "132108.156000",
          "132110.656000",
          "132113.156000",
          "132115.656000",
          "132118.156000",
          "132120.656000",
          "132123.156000",
          "132125.656000",
          "132128.156000",
          "132130.656000",
          "132133.156000",
          "132135.656000",
          "132138.156000",
          "132140.656000",
          "132142.687000"
        ],
        "InstanceNumber": [
          1,
          2,
          3,
          4,
          5,
          6,
          7,
          8,
          9,
          10,
          11,
          12,
          13,
          14,
          15,
          16,
          17,
          18,
          19,
          20,
          21,
          22,
          23,
          24,
          25,
          26,
          27,
          28,
          29,
          30,
          31,
          32,
          33,
          34,
          35,
          36,
          37,
          38,
          39,
          40,
          41,
          42,
          43,
          44,
          45,
          46,
          47,
          48,
          49,
          50,
          51,
          52,
          53,
          54,
          55,
          56,
          57,
          58,
          59,
          60,
          61,
          62,
          63,
          64,
          65,
          66,
          67,
          68,
          69,
          70,
          71,
          72,
          73,
          74,
          75,
          76,
          77,
          78,
          79,
          80,
          81,
          82,
          83,
          84,
          85,
          86,
          87,
          88,
          89,
          90,
          91,
          92,
          93,
          94,
          95,
          96,
          97,
          98,
          99,
          100,
          101,
          102,
          103,
          104,
          105,
          106,
          107,
          108,
          109,
          110,
          111,
          112,
          113,
          114,
          115,
          116,
          117,
          118,
          119,
          120,
          121,
          122,
          123,
          124,
          125,
          126,
          127,
          128,
          129,
          130,
          131,
          132,
          133,
          134,
          135,
          136,
          137,
          138,
          139,
          140,
          141,
          142,
          143,
          144,
          145,
          146,
          147,
          148,
          149,
          150,
          151,
          152,
          153,
          154,
          155,
          156,
          157,
          158,
          159,
          160,
          161,
          162,
          163,
          164
        ],
        "WindowCenter": [
          635.0,
          634.0,
          634.0,
          633.0,
          633.0,
          633.0,
          632.0,
          633.0,
          633.0,
          634.0,
          633.0,
          632.0,
          633.0,
          633.0,
          631.0,
          633.0,
          633.0,
          632.0,
          634.0,
          634.0,
          634.0,
          632.0,
          632.0,
          634.0,
          634.0,
          633.0,
          634.0,
          634.0,
          632.0,
          633.0,
          633.0,
          633.0,
          633.0,
          633.0,
          632.0,
          632.0,
          632.0,
          632.0,
          633.0,
          634.0,
          632.0,
          634.0,
          634.0,
          634.0,
          635.0,
          634.0,
          633.0,
          633.0,
          633.0,
          632.0,
          633.0,
          633.0,
          634.0,
          633.0,
          634.0,
          634.0,
          633.0,
          632.0,
          632.0,
          632.0,
          634.0,
          633.0,
          632.0,
          632.0,
          633.0,
          632.0,
          633.0,
          632.0,
          632.0,
          633.0,
          630.0,
          632.0,
          633.0,
          634.0,
          632.0,
          634.0,
          633.0,
          632.0,
          632.0,
          633.0,
          632.0,
          633.0,
          633.0,
          634.0,
          635.0,
          633.0,
          633.0,
          632.0,
          633.0,
          632.0,
          631.0,
          632.0,
          634.0,
          634.0,
          633.0,
          633.0,
          633.0,
          632.0,
          634.0,
          633.0,
          633.0,
          632.0,
          634.0,
          633.0,
          633.0,
          628.0,
          632.0,
          633.0,
          634.0,
          634.0,
          632.0,
          633.0,
          633.0,
          632.0,
          634.0,
          632.0,
          635.0,
          632.0,
          633.0,
          633.0,
          633.0,
          633.0,
          634.0,
          634.0,
          635.0,
          632.0,
          631.0,
          631.0,
          633.0,
          630.0,
          634.0,
          633.0,
          633.0,
          632.0,
          633.0,
          633.0,
          633.0,
          634.0,
          633.0,
          632.0,
          634.0,
          632.0,
          632.0,
          633.0,
          634.0,
          632.0,
          633.0,
          634.0,
          632.0,
          632.0,
          634.0,
          632.0,
          634.0,
          633.0,
          633.0,
          632.0,
          632.0,
          633.0,
          633.0,
          632.0,
          634.0,
          634.0,
          634.0,
          633.0
        ],
        "WindowWidth": [
          1370.0,
          1366.0,
          1366.0,
          1364.0,
          1364.0,
          1365.0,
          1363.0,
          1364.0,
          1365.0,
          1366.0,
          1365.0,
          1363.0,
          1365.0,
          1364.0,
          1360.0,
          1365.0,
          1363.0,
          1363.0,
          1367.0,
          1366.0,
          1366.0,
          1363.0,
          1362.0,
          1366.0,
          1366.0,
          1364.0,
          1368.0,
          1368.0,
          1363.0,
          1364.0,
          1363.0,
          1365.0,
          1364.0,
          1365.0,
          1362.0,
          1362.0,
          1362.0,
          1362.0,
          1363.0,
          1367.0,
          1363.0,
          1366.0,
          1367.0,
          1368.0,
          1370.0,
          1367.0,
          1364.0,
          1364.0,
          1365.0,
          1363.0,
          1365.0,
          1366.0,
          1367.0,
          1365.0,
          1366.0,
          1367.0,
          1365.0,
          1363.0,
          1361.0,
          1363.0,
          1366.0,
          1365.0,
          1363.0,
          1363.0,
          1365.0,
          1363.0,
          1364.0,
          1363.0,
          1362.0,
          1365.0,
          1359.0,
          1362.0,
          1365.0,
          1367.0,
          1363.0,
          1368.0,
          1365.0,
          1363.0,
          1361.0,
          1364.0,
          1362.0,
          1364.0,
          1364.0,
          1368.0,
          1368.0,
          1365.0,
          1364.0,
          1362.0,
          1364.0,
          1363.0,
          1360.0,
          1363.0,
          1368.0,
          1367.0,
          1363.0,
          1364.0,
          1363.0,
          1363.0,
          1367.0,
          1365.0,
          1365.0,
          1363.0,
          1367.0,
          1365.0,
          1365.0,
          1355.0,
          1362.0,
          1364.0,
          1367.0,
          1367.0,
          1363.0,
          1364.0,
          1363.0,
          1363.0,
          1366.0,
          1363.0,
          1368.0,
          1363.0,
          1364.0,
          1365.0,
          1363.0,
          1365.0,
          1365.0,
          1365.0,
          1368.0,
          1362.0,
          1358.0,
          1360.0,
          1366.0,
          1358.0,
          1366.0,
          1365.0,
          1365.0,
          1362.0,
          1365.0,
          1364.0,
          1364.0,
          1366.0,
          1364.0,
          1363.0,
          1366.0,
          1361.0,
          1363.0,
          1365.0,
          1366.0,
          1362.0,
          1365.0,
          1367.0,
          1362.0,
          1362.0,
          1366.0,
          1363.0,
          1366.0,
          1365.0,
          1364.0,
          1362.0,
          1363.0,
          1364.0,
          1365.0,
          1364.0,
          1366.0,
          1366.0,
          1366.0,
          1365.0
        ]
      },
      "slices": {}
    }
  },
  "dummy_trs": 1,
  "dvars_nstd": 14.118185920493826,
  "dvars_std": 1.3350933996296297,
  "dvars_vstd": 0.9889941792592595,
  "efc": 0.39908703100027637,
  "fber": 56535.67578125,
  "fd_mean": 0.03123544681245378,
  "fd_num": 0,
  "fd_perc": 0.0,
  "fwhm_avg": 1.7080841666666666,
  "fwhm_x": 1.5794075,
  "fwhm_y": 1.8853525,
  "fwhm_z": 1.6594925,
  "gcor": 0.0101761,
  "gsr_x": -0.022199710831046104,
  "gsr_y": 0.011369004845619202,
  "provenance": {
    "md5sum": "a327ef8e7fa351165bd6c276b3a7643e",
    "settings": {
      "fd_thres": 0.2,
      "testing": false
    },
    "software": "mriqc",
    "version": "22.0.0rc1",
    "webapi_port": null,
    "webapi_url": "https://mriqc.nimh.nih.gov/api/v1"
  },
  "size_t": 163,
  "size_x": 64,
  "size_y": 64,
  "size_z": 32,
  "snr": 7.929037101808858,
  "spacing_tr": 2.5,
  "spacing_x": 4.0,
  "spacing_y": 4.0,
  "spacing_z": 4.0,
  "summary_bg_k": 48.3353466967969,
  "summary_bg_mad": 2.337599788715956,
  "summary_bg_mean": 15.89852237701416,
  "summary_bg_median": 3.398772954940796,
  "summary_bg_n": 89287.0,
  "summary_bg_p05": 1.3803681135177612,
  "summary_bg_p95": 77.79386367797848,
  "summary_bg_stdv": 39.876991271972656,
  "summary_fg_k": 1.8156656030748826,
  "summary_fg_mad": 98.03824807983774,
  "summary_fg_mean": 817.429443359375,
  "summary_fg_median": 814.6349487304688,
  "summary_fg_n": 15546.0,
  "summary_fg_p05": 660.7315979003906,
  "summary_fg_p95": 975.6410980224609,
  "summary_fg_stdv": 102.73741149902344,
  "tsnr": 131.8698867969215
}