{
  "aor": 0.00791717791411043,
  "aqi": 0.007321853496932515,
  "bids_meta": {
    "AcquisitionMatrixPE": 64,
    "AcquisitionNumber": 1,
    "AcquisitionTime": "10:51:59.932500",
    "BandwidthPerPixelPhaseEncode": 26.483,
    "BaseResolution": 64,
    "BodyPartExamined": "HEAD",
    "CogAtlasID": "TODO",
    "ConversionSoftware": "dcm2niix",
    "ConversionSoftwareVersion": "v1.0.20171017 GCC6.3.0",
    "DerivedVendorReportedEchoSpacing": 0.000590001,
    "DeviceSerialNumber": "35177",
    "DwellTime": 4.1e-06,
    "EchoTime": 0.027,
    "EffectiveEchoSpacing": 0.000590001,
    "FlipAngle": 90,
    "ImageOrientationPatientDICOM": [
      0.998568,
      0.0503681,
      -0.0180296,
      -0.0477107,
      0.990909,
      0.125787
    ],
    "ImageType": [
      "ORIGINAL",
      "PRIMARY",
      "M",
      "ND",
      "NORM",
      "MOSAIC"
    ],
    "InPlanePhaseEncodingDirectionDICOM": "COL",
    "InstitutionAddress": "Scott_Ave._4525_St._Louis_MO_US_63110",
    "InstitutionName": "Washington_University",
    "InstitutionalDepartmentName": "Department",
    "MRAcquisitionType": "2D",
    "MagneticFieldStrength": 3,
    "Manufacturer": "Siemens",
    "ManufacturersModelName": "TrioTim",
    "Modality": "MR",
    "PartialFourier": 1,
    "PatientPosition": "HFS",
    "PercentPhaseFOV": 100,
    "PhaseEncodingDirection": "j-",
    "PhaseEncodingSteps": 64,
    "PhaseResolution": 1,
    "PixelBandwidth": 1905,
    "ProcedureStepDescription": "head_GREENE",
    "ProtocolName": "ep2d_bold_rest4",
    "PulseSequenceDetails": "%SiemensSeq%_ep2d_bold",
    "ReceiveCoilName": "HeadMatrix",
    "ReconMatrixPE": 64,
    "RepetitionTime": 2.5,
    "SAR": 0.152397,
    "ScanOptions": "FS",
    "ScanningSequence": "EP",
    "SequenceName": "_epfid2d1_64",
    "SequenceVariant": "SK",
    "SeriesDescription": "ep2d_bold_rest4",
    "SeriesNumber": 13,
    "ShimSetting": [
      -243,
      -19609,
      8005,
      333,
      108,
      -597,
      328,
      -70
    ],
    "SliceThickness": 4,
    "SliceTiming": [
      1.255,
      0,
      1.335,
      0.08,
      1.4125,
      0.1575,
      1.49,
      0.2375,
      1.57,
      0.315,
      1.6475,
      0.3925,
      1.7275,
      0.4725,
      1.805,
      0.55,
      1.8825,
      0.6275,
      1.9625,
      0.7075,
      2.04,
      0.785,
      2.1175,
      0.865,
      2.1975,
      0.9425,
      2.275,
      1.02,
      2.355,
      1.1,
      2.4325,
      1.1775
    ],
    "SoftwareVersions": "syngo_MR_B17",
    "SpacingBetweenSlices": 4,
    "StationName": "MRC35177",
    "TaskName": "restfixationadaptive",
    "TotalReadoutTime": 0.0371701,
    "TxRefAmp": 343.407,
    "dataset": "ds000256",
    "dcmmeta_affine": [
      [
        -3.994271755218506,
        -0.19084277749061584,
        -0.09680544584989548,
        139.7621612548828
      ],
      [
        -0.20147255063056946,
        3.963637351989746,
        0.49898582696914673,
        -124.23081970214844
      ],
      [
        -0.07211845368146896,
        -0.5031471252441406,
        3.967574119567871,
        -17.4912166595459
      ],
      [
        0.0,
        0.0,
        0.0,
        1.0
      ]
    ],
    "dcmmeta_reorient_transform": [
      [
        0.0,
        -1.0,
        0.0,
        63.0
      ],
      [
        1.0,
        0.0,
        0.0,
        0.0
      ],
      [
        0.0,
        0.0,
        1.0,
        0.0
      ],
      [
        0.0,
        0.0,
        0.0,
        1.0
      ]
    ],
    "dcmmeta_shape": [
      64,
      64,
      32,
      164
    ],
    "dcmmeta_slice_dim": 2,
    "dcmmeta_version": 0.6,
    "global": {
      "const": {
        "AccessionNumber": ".",
        "AcquisitionMatrix": [
          64,
          0,
          0,
          64
        ],
        "AngioFlag": "N",
        "BitsAllocated": 16,
        "BitsStored": 12,
        "BodyPartExamined": "HEAD",
        "Columns": 384,
        "DeidentificationMethodCodeSequence": [
          {
            "CodeMeaning": "XNAT Edit Script",
            "CodeValue": "625500",
            "CodingSchemeDesignator": "XNAT",
            "CodingSchemeVersion": "0.1"
          }
        ],
        "EchoNumbers": 1,
        "EchoTime": 27.0,
        "EchoTrainLength": 1,
        "FlipAngle": 90.0,
        "HighBit": 11,
        "ImageOrientationPatient": [
          0.99856796650725,
          0.05036813777651,
          -0.0180296134872,
          -0.047710695677,
          0.99090936701142,
          0.12578678741044
        ],
        "ImagePositionPatient": [
          -736.28772378795,
          -791.895941697,
          -118.15407787142
        ],
        "ImageType": [
          "ORIGINAL",
          "PRIMARY",
          "M",
          "ND",
          "NORM",
          "MOSAIC"
        ],
        "ImagedNucleus": "1H",
        "ImagingFrequency": 123.255746,
        "InPlanePhaseEncodingDirection": "COL",
        "MRAcquisitionType": "2D",
        "MagneticFieldStrength": 3.0,
        "Manufacturer": "SIEMENS",
        "ManufacturerModelName": "TrioTim",
        "Modality": "MR",
        "NumberOfAverages": 1.0,
        "NumberOfPhaseEncodingSteps": 64,
        "PercentPhaseFieldOfView": 100.0,
        "PercentSampling": 100.0,
        "PerformedProcedureStepStartTime": "100414.234000",
        "PhotometricInterpretation": "MONOCHROME2",
        "PixelBandwidth": 1905.0,
        "PixelRepresentation": 0,
        "PixelSpacing": [
          4.0,
          4.0
        ],
        "PositionReferenceIndicator": "",
        "ProtocolName": "ep2d_bold_rest4",
        "RepetitionTime": 2500.0,
        "Rows": 384,
        "SAR": 0.15239677514583,
        "SamplesPerPixel": 1,
        "ScanOptions": "FS",
        "ScanningSequence": "EP",
        "SequenceName": "*epfid2d1_64",
        "SequenceVariant": "SK",
        "SeriesDescription": "ep2d_bold_rest4",
        "SeriesNumber": 13,
        "SeriesTime": "105202.171000",
        "SliceLocation": -36.229211235297,
        "SliceThickness": 4.0,
        "SmallestImagePixelValue": 0,
        "SoftwareVersions": "syngo MR B17",
        "SpacingBetweenSlices": 4.0000002891891,
        "SpecificCharacterSet": "ISO_IR 100",
        "StudyID": "1",
        "StudyTime": "100414.156000",
        "TransmitCoilName": "Body",
        "VariableFlipAngleFlag": "N",
        "WindowCenterWidthExplanation": "Algo1",
        "dBdt": 0.0
      },
      "slices": {}
    },
    "modality": "bold",
    "subject_id": "CTS200",
    "task_id": "restfixationadaptive",
    "time": {
      "samples": {
        "AcquisitionNumber": [
          1,
          2,
          3,
          4,
          5,
          6,
          7,
          8,
          9,
          10,
          11,
          12,
          13,
          14,
          15,
          16,
          17,
          18,
          19,
          20,
          21,
          22,
          23,
          24,
          25,
          26,
          27,
          28,
          29,
          30,
          31,
          32,
          33,
          34,
          35,
          36,
          37,
          38,
          39,
          40,
          41,
          42,
          43,
          44,
          45,
          46,
          47,
          48,
          49,
          50,
          51,
          52,
          53,
          54,
          55,
          56,
          57,
          58,
          59,
          60,
          61,
          62,
          63,
          64,
          65,
          66,
          67,
          68,
          69,
          70,
          71,
          72,
          73,
          74,
          75,
          76,
          77,
          78,
          79,
          80,
          81,
          82,
          83,
          84,
          85,
          86,
          87,
          88,
          89,
          90,
          91,
          92,
          93,
          94,
          95,
          96,
          97,
          98,
          99,
          100,
          101,
          102,
          103,
          104,
          105,
          106,
          107,
          108,
          109,
          110,
          111,
          112,
          113,
          114,
          115,
          116,
          117,
          118,
          119,
          120,
          121,
          122,
          123,
          124,
          125,
          126,
          127,
          128,
          129,
          130,
          131,
          132,
          133,
          134,
          135,
          136,
          137,
          138,
          139,
          140,
          141,
          142,
          143,
          144,
          145,
          146,
          147,
          148,
          149,
          150,
          151,
          152,
          153,
          154,
          155,
          156,
          157,
          158,
          159,
          160,
          161,
          162,
          163,
          164
        ],
        "AcquisitionTime": [
          "105159.932500",
          "105202.442500",
          "105204.952500",
          "105207.462500",
          "105209.972500",
          "105212.482500",
          "105214.992500",
          "105217.502500",
          "105220.012500",
          "105222.525000",
          "105225.035000",
          "105227.545000",
          "105230.055000",
          "105232.565000",
          "105235.075000",
          "105237.585000",
          "105240.095000",
          "105242.605000",
          "105245.115000",
          "105247.625000",
          "105250.135000",
          "105252.645000",
          "105255.155000",
          "105257.665000",
          "105300.175000",
          "105302.685000",
          "105305.195000",
          "105307.705000",
          "105310.215000",
          "105312.725000",
          "105315.235000",
          "105317.745000",
          "105320.255000",
          "105322.765000",
          "105325.275000",
          "105327.785000",
          "105330.295000",
          "105332.805000",
          "105335.315000",
          "105337.825000",
          "105340.335000",
          "105342.845000",
          "105345.355000",
          "105347.865000",
          "105350.375000",
          "105352.885000",
          "105355.395000",
          "105357.905000",
          "105400.415000",
          "105402.925000",
          "105405.435000",
          "105407.945000",
          "105410.455000",
          "105412.965000",
          "105415.475000",
          "105417.985000",
          "105420.495000",
          "105423.005000",
          "105425.515000",
          "105428.025000",
          "105430.535000",
          "105433.045000",
          "105435.555000",
          "105438.065000",
          "105440.575000",
          "105443.085000",
          "105445.595000",
          "105448.105000",
          "105450.615000",
          "105453.125000",
          "105455.635000",
          "105458.145000",
          "105500.657500",
          "105503.167500",
          "105505.677500",
          "105508.187500",
          "105510.697500",
          "105513.207500",
          "105515.717500",
          "105518.227500",
          "105520.737500",
          "105523.247500",
          "105525.757500",
          "105528.267500",
          "105530.777500",
          "105533.287500",
          "105535.797500",
          "105538.307500",
          "105540.817500",
          "105543.327500",
          "105545.837500",
          "105548.347500",
          "105550.857500",
          "105553.367500",
          "105555.877500",
          "105558.387500",
          "105600.897500",
          "105603.407500",
          "105605.917500",
          "105608.427500",
          "105610.937500",
          "105613.447500",
          "105615.957500",
          "105618.467500",
          "105620.977500",
          "105623.487500",
          "105625.997500",
          "105628.507500",
          "105631.017500",
          "105633.527500",
          "105636.037500",
          "105638.547500",
          "105641.057500",
          "105643.567500",
          "105646.077500",
          "105648.587500",
          "105651.097500",
          "105653.607500",
          "105656.117500",
          "105658.627500",
          "105701.137500",
          "105703.647500",
          "105706.157500",
          "105708.667500",
          "105711.177500",
          "105713.687500",
          "105716.197500",
          "105718.707500",
          "105721.217500",
          "105723.727500",
          "105726.237500",
          "105728.747500",
          "105731.257500",
          "105733.767500",
          "105736.280000",
          "105738.790000",
          "105741.300000",
          "105743.810000",
          "105746.320000",
          "105748.830000",
          "105751.340000",
          "105753.850000",
          "105756.360000",
          "105758.870000",
          "105801.380000",
          "105803.890000",
          "105806.400000",
          "105808.910000",
          "105811.420000",
          "105813.930000",
          "105816.440000",
          "105818.950000",
          "105821.460000",
          "105823.970000",
          "105826.480000",
          "105828.990000",
          "105831.500000",
          "105834.010000",
          "105836.520000",
          "105839.030000",
          "105841.540000",
          "105844.050000",
          "105846.560000",
          "105849.070000"
        ],
        "ContentTime": [
          "105202.171000",
          "105204.656000",
          "105207.156000",
          "105209.656000",
          "105212.156000",
          "105214.656000",
          "105217.156000",
          "105219.656000",
          "105222.156000",
          "105224.656000",
          "105227.156000",
          "105229.656000",
          "105232.156000",
          "105234.656000",
          "105237.156000",
          "105239.656000",
          "105242.156000",
          "105244.656000",
          "105247.156000",
          "105249.656000",
          "105252.156000",
          "105254.656000",
          "105257.156000",
          "105259.656000",
          "105302.156000",
          "105304.656000",
          "105307.156000",
          "105309.656000",
          "105312.156000",
          "105314.656000",
          "105317.156000",
          "105319.656000",
          "105322.156000",
          "105324.656000",
          "105327.156000",
          "105329.656000",
          "105332.156000",
          "105334.656000",
          "105337.156000",
          "105339.656000",
          "105342.156000",
          "105344.656000",
          "105347.156000",
          "105349.656000",
          "105352.156000",
          "105354.656000",
          "105357.156000",
          "105359.656000",
          "105402.156000",
          "105404.656000",
          "105407.156000",
          "105409.656000",
          "105412.156000",
          "105414.656000",
          "105417.156000",
          "105419.656000",
          "105422.156000",
          "105424.656000",
          "105427.156000",
          "105429.656000",
          "105432.156000",
          "105434.656000",
          "105437.156000",
          "105439.656000",
          "105442.156000",
          "105444.656000",
          "105447.156000",
          "105449.656000",
          "105452.156000",
          "105454.656000",
          "105457.156000",
          "105459.656000",
          "105502.156000",
          "105504.656000",
          "105507.156000",
          "105509.656000",
          "105512.156000",
          "105514.656000",
          "105517.156000",
          "105519.656000",
          "105522.156000",
          "105524.656000",
          "105527.156000",
          "105529.656000",
          "105532.156000",
          "105534.656000",
          "105537.156000",
          "105539.656000",
          "105542.156000",
          "105544.656000",
          "105547.156000",
          "105549.656000",
          "105552.156000",
          "105554.656000",
          "105557.156000",
          "105559.656000",
          "105602.156000",
          "105604.656000",
          "105607.156000",
          "105609.656000",
          "105612.156000",
          "105614.656000",
          "105617.156000",
          "105619.656000",
          "105622.156000",
          "105624.656000",
          "105627.156000",
          "105629.656000",
          "105632.156000",
          "105634.656000",
          "105637.156000",
          "105639.656000",
          "105642.156000",
          "105644.656000",
          "105647.156000",
          "105649.656000",
          "105652.156000",
          "105654.656000",
          "105657.156000",
          "105659.656000",
          "105702.156000",
          "105704.656000",
          "105707.156000",
          "105709.656000",
          "105712.156000",
          "105714.656000",
          "105717.156000",
          "105719.656000",
          "105722.156000",
          "105724.656000",
          "105727.156000",
          "105729.656000",
          "105732.156000",
          "105734.656000",
          "105737.156000",
          "105739.656000",
          "105742.156000",
          "105744.656000",
          "105747.156000",
          "105749.656000",
          "105752.156000",
          "105754.656000",
          "105757.156000",
          "105759.656000",
          "105802.156000",
          "105804.656000",
          "105807.156000",
          "105809.656000",
          "105812.156000",
          "105814.656000",
          "105817.156000",
          "105819.656000",
          "105822.156000",
          "105824.656000",
          "105827.156000",
          "105829.656000",
          "105832.156000",
          "105834.656000",
          "105837.156000",
          "105839.656000",
          "105842.156000",
          "105844.656000",
          "105847.156000",
          "105849.468000"
        ],
        "InstanceCreationTime": [
          "105202.171000",
          "105204.656000",
          "105207.156000",
          "105209.656000",
          "105212.156000",
          "105214.656000",
          "105217.156000",
          "105219.656000",
          "105222.156000",
          "105224.656000",
          "105227.156000",
          "105229.656000",
          "105232.156000",
          "105234.656000",
          "105237.156000",
          "105239.656000",
          "105242.156000",
          "105244.656000",
          "105247.156000",
          "105249.656000",
          "105252.156000",
          "105254.656000",
          "105257.156000",
          "105259.656000",
          "105302.156000",
          "105304.656000",
          "105307.156000",
          "105309.656000",
          "105312.156000",
          "105314.656000",
          "105317.156000",
          "105319.656000",
          "105322.156000",
          "105324.656000",
          "105327.156000",
          "105329.656000",
          "105332.156000",
          "105334.656000",
          "105337.156000",
          "105339.656000",
          "105342.156000",
          "105344.656000",
          "105347.156000",
          "105349.656000",
          "105352.156000",
          "105354.656000",
          "105357.156000",
          "105359.656000",
          "105402.156000",
          "105404.656000",
          "105407.156000",
          "105409.656000",
          "105412.156000",
          "105414.656000",
          "105417.156000",
          "105419.656000",
          "105422.156000",
          "105424.656000",
          "105427.156000",
          "105429.656000",
          "105432.156000",
          "105434.656000",
          "105437.156000",
          "105439.656000",
          "105442.156000",
          "105444.656000",
          "105447.156000",
          "105449.656000",
          "105452.156000",
          "105454.656000",
          "105457.156000",
          "105459.656000",
          "105502.156000",
          "105504.656000",
          "105507.156000",
          "105509.656000",
          "105512.156000",
          "105514.656000",
          "105517.156000",
          "105519.656000",
          "105522.156000",
          "105524.656000",
          "105527.156000",
          "105529.656000",
          "105532.156000",
          "105534.656000",
          "105537.156000",
          "105539.656000",
          "105542.156000",
          "105544.656000",
          "105547.156000",
          "105549.656000",
          "105552.156000",
          "105554.656000",
          "105557.156000",
          "105559.656000",
          "105602.156000",
          "105604.656000",
          "105607.156000",
          "105609.656000",
          "105612.156000",
          "105614.656000",
          "105617.156000",
          "105619.656000",
          "105622.156000",
          "105624.656000",
          "105627.156000",
          "105629.656000",
          "105632.156000",
          "105634.656000",
          "105637.156000",
          "105639.656000",
          "105642.156000",
          "105644.656000",
          "105647.156000",
          "105649.656000",
          "105652.156000",
          "105654.656000",
          "105657.156000",
          "105659.656000",
          "105702.156000",
          "105704.656000",
          "105707.156000",
          "105709.656000",
          "105712.156000",
          "105714.656000",
          "105717.156000",
          "105719.656000",
          "105722.156000",
          "105724.656000",
          "105727.156000",
          "105729.656000",
          "105732.156000",
          "105734.656000",
          "105737.156000",
          "105739.656000",
          "105742.156000",
          "105744.656000",
          "105747.156000",
          "105749.656000",
          "105752.156000",
          "105754.656000",
          "105757.156000",
          "105759.656000",
          "105802.156000",
          "105804.656000",
          "105807.156000",
          "105809.656000",
          "105812.156000",
          "105814.656000",
          "105817.156000",
          "105819.656000",
          "105822.156000",
          "105824.656000",
          "105827.156000",
          "105829.656000",
          "105832.156000",
          "105834.656000",
          "105837.156000",
          "105839.656000",
          "105842.156000",
          "105844.656000",
          "105847.156000",
          "105849.468000"
        ],
        "InstanceNumber": [
          1,
          2,
          3,
          4,
          5,
          6,
          7,
          8,
          9,
          10,
          11,
          12,
          13,
          14,
          15,
          16,
          17,
          18,
          19,
          20,
          21,
          22,
          23,
          24,
          25,
          26,
          27,
          28,
          29,
          30,
          31,
          32,
          33,
          34,
          35,
          36,
          37,
          38,
          39,
          40,
          41,
          42,
          43,
          44,
          45,
          46,
          47,
          48,
          49,
          50,
          51,
          52,
          53,
          54,
          55,
          56,
          57,
          58,
          59,
          60,
          61,
          62,
          63,
          64,
          65,
          66,
          67,
          68,
          69,
          70,
          71,
          72,
          73,
          74,
          75,
          76,
          77,
          78,
          79,
          80,
          81,
          82,
          83,
          84,
          85,
          86,
          87,
          88,
          89,
          90,
          91,
          92,
          93,
          94,
          95,
          96,
          97,
          98,
          99,
          100,
          101,
          102,
          103,
          104,
          105,
          106,
          107,
          108,
          109,
          110,
          111,
          112,
          113,
          114,
          115,
          116,
          117,
          118,
          119,
          120,
          121,
          122,
          123,
          124,
          125,
          126,
          127,
          128,
          129,
          130,
          131,
          132,
          133,
          134,
          135,
          136,
          137,
          138,
          139,
          140,
          141,
          142,
          143,
          144,
          145,
          146,
          147,
          148,
          149,
          150,
          151,
          152,
          153,
          154,
          155,
          156,
          157,
          158,
          159,
          160,
          161,
          162,
          163,
          164
        ],
        "LargestImagePixelValue": [
          1750,
          1264,
          1631,
          1252,
          1253,
          1222,
          1238,
          1250,
          1254,
          1280,
          1256,
          1285,
          1254,
          1277,
          1282,
          1566,
          1272,
          1258,
          1289,
          1265,
          1287,
          1288,
          1267,
          1290,
          1283,
          1266,
          1480,
          1284,
          1264,
          1276,
          1282,
          1252,
          1261,
          1303,
          1393,
          1281,
          1274,
          1319,
          1480,
          1285,
          1264,
          1283,
          1286,
          1278,
          1311,
          1285,
          1279,
          1291,
          1279,
          1272,
          1278,
          1263,
          1284,
          1270,
          1282,
          1283,
          1260,
          1223,
          1265,
          1268,
          1197,
          1259,
          1213,
          1234,
          1257,
          1207,
          1231,
          1244,
          1204,
          1218,
          1250,
          1213,
          1243,
          1244,
          1230,
          1249,
          1261,
          1232,
          1249,
          1264,
          1222,
          1234,
          1257,
          1235,
          1244,
          1195,
          1218,
          1255,
          1264,
          1274,
          1283,
          1187,
          1221,
          1220,
          1193,
          1239,
          1327,
          1277,
          1272,
          1281,
          1267,
          1269,
          1276,
          1249,
          1284,
          1259,
          1399,
          1261,
          1264,
          1459,
          1285,
          1262,
          1285,
          1243,
          1198,
          1251,
          1241,
          1240,
          1253,
          1276,
          1260,
          1380,
          1279,
          1258,
          1279,
          1244,
          1217,
          1216,
          1183,
          1174,
          1230,
          1164,
          1215,
          1213,
          1216,
          1221,
          1215,
          1229,
          1208,
          1212,
          1221,
          1228,
          1204,
          1293,
          1228,
          1224,
          1239,
          1187,
          1255,
          1193,
          1198,
          1244,
          1224,
          1241,
          1280,
          1495,
          1246,
          1288,
          1273,
          1223,
          1213,
          1240,
          1297,
          1241
        ],
        "WindowCenter": [
          577.0,
          572.0,
          574.0,
          572.0,
          572.0,
          572.0,
          572.0,
          572.0,
          573.0,
          573.0,
          573.0,
          573.0,
          573.0,
          572.0,
          573.0,
          574.0,
          572.0,
          572.0,
          572.0,
          572.0,
          573.0,
          572.0,
          572.0,
          573.0,
          573.0,
          573.0,
          572.0,
          572.0,
          572.0,
          571.0,
          572.0,
          572.0,
          573.0,
          573.0,
          573.0,
          573.0,
          572.0,
          572.0,
          573.0,
          572.0,
          572.0,
          572.0,
          571.0,
          572.0,
          572.0,
          572.0,
          571.0,
          572.0,
          572.0,
          572.0,
          573.0,
          572.0,
          572.0,
          572.0,
          571.0,
          572.0,
          574.0,
          573.0,
          572.0,
          572.0,
          571.0,
          572.0,
          573.0,
          571.0,
          572.0,
          573.0,
          573.0,
          573.0,
          572.0,
          573.0,
          572.0,
          573.0,
          572.0,
          573.0,
          572.0,
          572.0,
          574.0,
          572.0,
          573.0,
          572.0,
          572.0,
          574.0,
          572.0,
          572.0,
          571.0,
          567.0,
          572.0,
          572.0,
          571.0,
          571.0,
          571.0,
          571.0,
          572.0,
          572.0,
          573.0,
          572.0,
          573.0,
          573.0,
          572.0,
          572.0,
          572.0,
          572.0,
          572.0,
          572.0,
          573.0,
          573.0,
          572.0,
          572.0,
          572.0,
          572.0,
          571.0,
          571.0,
          572.0,
          571.0,
          572.0,
          572.0,
          572.0,
          571.0,
          571.0,
          571.0,
          571.0,
          571.0,
          571.0,
          570.0,
          571.0,
          570.0,
          571.0,
          571.0,
          571.0,
          571.0,
          573.0,
          572.0,
          572.0,
          572.0,
          572.0,
          574.0,
          571.0,
          570.0,
          571.0,
          571.0,
          573.0,
          573.0,
          572.0,
          573.0,
          573.0,
          572.0,
          572.0,
          572.0,
          573.0,
          576.0,
