{
  "aor": 0.024764512195121956,
  "aqi": 0.015810348353658535,
  "bids_meta": {
    "AcquisitionMatrixPE": 64,
    "AcquisitionNumber": 1,
    "AcquisitionTime": "13:17:42.965000",
    "BandwidthPerPixelPhaseEncode": 26.483,
    "BaseResolution": 64,
    "BodyPartExamined": "HEAD",
    "CogAtlasID": "TODO",
    "ConversionSoftware": "dcm2niix",
    "ConversionSoftwareVersion": "v1.0.20171017 GCC6.3.0",
    "DerivedVendorReportedEchoSpacing": 0.000590001,
    "DeviceSerialNumber": "35177",
    "DwellTime": 4.1e-06,
    "EchoTime": 0.027,
    "EffectiveEchoSpacing": 0.000590001,
    "FlipAngle": 90,
    "ImageOrientationPatientDICOM": [
      0.996929,
      -0.062634,
      0.0470088,
      0.0604511,
      0.997087,
      0.0465048
    ],
    "ImageType": [
      "ORIGINAL",
      "PRIMARY",
      "M",
      "ND",
      "NORM",
      "MOSAIC"
    ],
    "InPlanePhaseEncodingDirectionDICOM": "COL",
    "InstitutionAddress": "Scott_Ave._4525_St._Louis_MO_US_63110",
    "InstitutionName": "Washington_University",
    "InstitutionalDepartmentName": "Department",
    "MRAcquisitionType": "2D",
    "MagneticFieldStrength": 3,
    "Manufacturer": "Siemens",
    "ManufacturersModelName": "TrioTim",
    "Modality": "MR",
    "PartialFourier": 1,
    "PatientPosition": "HFS",
    "PercentPhaseFOV": 100,
    "PhaseEncodingDirection": "j-",
    "PhaseEncodingSteps": 64,
    "PhaseResolution": 1,
    "PixelBandwidth": 1905,
    "ProcedureStepDescription": "head_GREENE",
    "ProtocolName": "ep2d_bold_movie_rest_2B",
    "PulseSequenceDetails": "%SiemensSeq%_ep2d_bold",
    "ReceiveCoilName": "HeadMatrix",
    "ReconMatrixPE": 64,
    "RepetitionTime": 2.5,
    "SAR": 0.12745,
    "ScanOptions": "FS",
    "ScanningSequence": "EP",
    "SequenceName": "_epfid2d1_64",
    "SequenceVariant": "SK",
    "SeriesDescription": "ep2d_bold_movie_rest_2B",
    "SeriesNumber": 10,
    "ShimSetting": [
      -189,
      -19533,
      7969,
      269,
      49,
      -564,
      244,
      -70
    ],
    "SliceThickness": 4,
    "SliceTiming": [
      1.255,
      0,
      1.335,
      0.08,
      1.4125,
      0.1575,
      1.49,
      0.2375,
      1.57,
      0.315,
      1.6475,
      0.3925,
      1.7275,
      0.4725,
      1.805,
      0.55,
      1.8825,
      0.6275,
      1.9625,
      0.7075,
      2.04,
      0.785,
      2.1175,
      0.865,
      2.1975,
      0.9425,
      2.275,
      1.02,
      2.355,
      1.1,
      2.4325,
      1.1775
    ],
    "SoftwareVersions": "syngo_MR_B17",
    "SpacingBetweenSlices": 4,
    "StationName": "MRC35177",
    "TaskName": "restmovienofeedback",
    "TotalReadoutTime": 0.0371701,
    "TxRefAmp": 335.725,
    "dataset": "ds000256",
    "dcmmeta_affine": [
      [
        -3.987715482711792,
        0.24180446565151215,
        0.1991386115550995,
        120.38082885742188
      ],
      [
        0.25053614377975464,
        3.988348960876465,
        0.17408111691474915,
        -131.7904815673828
      ],
      [
        0.18803516030311584,
        -0.18601933121681213,
        3.9912455081939697,
        -48.26198959350586
      ],
      [
        0.0,
        0.0,
        0.0,
        1.0
      ]
    ],
    "dcmmeta_reorient_transform": [
      [
        0.0,
        -1.0,
        0.0,
        63.0
      ],
      [
        1.0,
        0.0,
        0.0,
        0.0
      ],
      [
        0.0,
        0.0,
        1.0,
        0.0
      ],
      [
        0.0,
        0.0,
        0.0,
        1.0
      ]
    ],
    "dcmmeta_shape": [
      64,
      64,
      32,
      164
    ],
    "dcmmeta_slice_dim": 2,
    "dcmmeta_version": 0.6,
    "global": {
      "const": {
        "AccessionNumber": ".",
        "AcquisitionMatrix": [
          64,
          0,
          0,
          64
        ],
        "AngioFlag": "N",
        "BitsAllocated": 16,
        "BitsStored": 12,
        "BodyPartExamined": "HEAD",
        "Columns": 384,
        "DeidentificationMethodCodeSequence": [
          {
            "CodeMeaning": "XNAT Edit Script",
            "CodeValue": "625500",
            "CodingSchemeDesignator": "XNAT",
            "CodingSchemeVersion": "0.1"
          }
        ],
        "EchoNumbers": 1,
        "EchoTime": 27.0,
        "EchoTrainLength": 1,
        "FlipAngle": 90.0,
        "HighBit": 11,
        "ImageOrientationPatient": [
          0.99692885962054,
          -0.0626340353518,
          0.04700879142514,
          0.06045111524135,
          0.99708723946961,
          0.04650483365136
        ],
        "ImagePositionPatient": [
          -812.33769717403,
          -717.52555504357,
          -119.82992722404
        ],
        "ImageType": [
          "ORIGINAL",
          "PRIMARY",
          "M",
          "ND",
          "NORM",
          "MOSAIC"
        ],
        "ImagedNucleus": "1H",
        "ImagingFrequency": 123.255888,
        "InPlanePhaseEncodingDirection": "COL",
        "MRAcquisitionType": "2D",
        "MagneticFieldStrength": 3.0,
        "Manufacturer": "SIEMENS",
        "ManufacturerModelName": "TrioTim",
        "Modality": "MR",
        "NumberOfAverages": 1.0,
        "NumberOfPhaseEncodingSteps": 64,
        "PercentPhaseFieldOfView": 100.0,
        "PercentSampling": 100.0,
        "PerformedProcedureStepStartTime": "123052.937000",
        "PhotometricInterpretation": "MONOCHROME2",
        "PixelBandwidth": 1905.0,
        "PixelRepresentation": 0,
        "PixelSpacing": [
          4.0,
          4.0
        ],
        "PositionReferenceIndicator": "",
        "ProtocolName": "ep2d_bold_movie__rest_2B",
        "RepetitionTime": 2500.0,
        "Rows": 384,
        "SAR": 0.12745018749552,
        "SamplesPerPixel": 1,
        "ScanOptions": "FS",
        "ScanningSequence": "EP",
        "SequenceName": "*epfid2d1_64",
        "SequenceVariant": "SK",
        "SeriesDescription": "ep2d_bold_movie__rest_2B",
        "SeriesNumber": 10,
        "SeriesTime": "131744.328000",
        "SliceLocation": -47.898800506001,
        "SliceThickness": 4.0,
        "SmallestImagePixelValue": 0,
        "SoftwareVersions": "syngo MR B17",
        "SpacingBetweenSlices": 4.0000001490306,
        "SpecificCharacterSet": "ISO_IR 100",
        "StudyID": "1",
        "StudyTime": "123052.890000",
        "TransmitCoilName": "Body",
        "VariableFlipAngleFlag": "N",
        "WindowCenterWidthExplanation": "Algo1",
        "dBdt": 0.0
      },
      "slices": {}
    },
    "modality": "bold",
    "subject_id": "CTS218",
    "task_id": "restmovienofeedback",
    "time": {
      "samples": {
        "AcquisitionNumber": [
          1,
          2,
          3,
          4,
          5,
          6,
          7,
          8,
          9,
          10,
          11,
          12,
          13,
          14,
          15,
          16,
          17,
          18,
          19,
          20,
          21,
          22,
          23,
          24,
          25,
          26,
          27,
          28,
          29,
          30,
          31,
          32,
          33,
          34,
          35,
          36,
          37,
          38,
          39,
          40,
          41,
          42,
          43,
          44,
          45,
          46,
          47,
          48,
          49,
          50,
          51,
          52,
          53,
          54,
          55,
          56,
          57,
          58,
          59,
          60,
          61,
          62,
          63,
          64,
          65,
          66,
          67,
          68,
          69,
          70,
          71,
          72,
          73,
          74,
          75,
          76,
          77,
          78,
          79,
          80,
          81,
          82,
          83,
          84,
          85,
          86,
          87,
          88,
          89,
          90,
          91,
          92,
          93,
          94,
          95,
          96,
          97,
          98,
          99,
          100,
          101,
          102,
          103,
          104,
          105,
          106,
          107,
          108,
          109,
          110,
          111,
          112,
          113,
          114,
          115,
          116,
          117,
          118,
          119,
          120,
          121,
          122,
          123,
          124,
          125,
          126,
          127,
          128,
          129,
          130,
          131,
          132,
          133,
          134,
          135,
          136,
          137,
          138,
          139,
          140,
          141,
          142,
          143,
          144,
          145,
          146,
          147,
          148,
          149,
          150,
          151,
          152,
          153,
          154,
          155,
          156,
          157,
          158,
          159,
          160,
          161,
          162,
          163,
          164
        ],
        "AcquisitionTime": [
          "131742.965000",
          "131745.475000",
          "131747.985000",
          "131750.495000",
          "131753.005000",
          "131755.515000",
          "131758.025000",
          "131800.535000",
          "131803.045000",
          "131805.557500",
          "131808.067500",
          "131810.577500",
          "131813.087500",
          "131815.597500",
          "131818.107500",
          "131820.617500",
          "131823.127500",
          "131825.637500",
          "131828.147500",
          "131830.657500",
          "131833.167500",
          "131835.677500",
          "131838.187500",
          "131840.697500",
          "131843.207500",
          "131845.717500",
          "131848.227500",
          "131850.737500",
          "131853.247500",
          "131855.757500",
          "131858.267500",
          "131900.777500",
          "131903.287500",
          "131905.797500",
          "131908.307500",
          "131910.817500",
          "131913.327500",
          "131915.837500",
          "131918.347500",
          "131920.857500",
          "131923.367500",
          "131925.877500",
          "131928.387500",
          "131930.897500",
          "131933.407500",
          "131935.917500",
          "131938.427500",
          "131940.937500",
          "131943.447500",
          "131945.957500",
          "131948.467500",
          "131950.977500",
          "131953.487500",
          "131955.997500",
          "131958.507500",
          "132001.017500",
          "132003.527500",
          "132006.037500",
          "132008.547500",
          "132011.057500",
          "132013.567500",
          "132016.077500",
          "132018.587500",
          "132021.097500",
          "132023.607500",
          "132026.117500",
          "132028.627500",
          "132031.137500",
          "132033.647500",
          "132036.157500",
          "132038.667500",
          "132041.180000",
          "132043.690000",
          "132046.200000",
          "132048.710000",
          "132051.220000",
          "132053.730000",
          "132056.240000",
          "132058.750000",
          "132101.260000",
          "132103.770000",
          "132106.280000",
          "132108.790000",
          "132111.300000",
          "132113.810000",
          "132116.320000",
          "132118.830000",
          "132121.340000",
          "132123.850000",
          "132126.360000",
          "132128.870000",
          "132131.380000",
          "132133.890000",
          "132136.400000",
          "132138.910000",
          "132141.420000",
          "132143.930000",
          "132146.440000",
          "132148.950000",
          "132151.460000",
          "132153.970000",
          "132156.480000",
          "132158.990000",
          "132201.500000",
          "132204.010000",
          "132206.520000",
          "132209.030000",
          "132211.540000",
          "132214.050000",
          "132216.560000",
          "132219.070000",
          "132221.580000",
          "132224.090000",
          "132226.600000",
          "132229.110000",
          "132231.620000",
          "132234.130000",
          "132236.640000",
          "132239.150000",
          "132241.660000",
          "132244.170000",
          "132246.680000",
          "132249.190000",
          "132251.700000",
          "132254.210000",
          "132256.720000",
          "132259.230000",
          "132301.740000",
          "132304.250000",
          "132306.760000",
          "132309.270000",
          "132311.780000",
          "132314.290000",
          "132316.800000",
          "132319.312500",
          "132321.822500",
          "132324.332500",
          "132326.842500",
          "132329.352500",
          "132331.862500",
          "132334.372500",
          "132336.882500",
          "132339.392500",
          "132341.902500",
          "132344.412500",
          "132346.922500",
          "132349.432500",
          "132351.942500",
          "132354.452500",
          "132356.962500",
          "132359.472500",
          "132401.982500",
          "132404.492500",
          "132407.002500",
          "132409.512500",
          "132412.022500",
          "132414.532500",
          "132417.042500",
          "132419.552500",
          "132422.062500",
          "132424.572500",
          "132427.082500",
          "132429.592500",
          "132432.102500"
        ],
        "ContentTime": [
          "131744.328000",
          "131746.812000",
          "131749.312000",
          "131751.812000",
          "131754.312000",
          "131756.812000",
          "131759.312000",
          "131801.812000",
          "131804.312000",
          "131806.812000",
          "131809.312000",
          "131811.812000",
          "131814.312000",
          "131816.812000",
          "131819.312000",
          "131821.812000",
          "131824.312000",
          "131826.812000",
          "131829.312000",
          "131831.812000",
          "131834.312000",
          "131836.812000",
          "131839.312000",
          "131841.812000",
          "131844.312000",
          "131846.812000",
          "131849.312000",
          "131851.812000",
          "131854.312000",
          "131856.812000",
          "131859.312000",
          "131901.812000",
          "131904.312000",
          "131906.812000",
          "131909.312000",
          "131911.812000",
          "131914.312000",
          "131916.812000",
          "131919.312000",
          "131921.812000",
          "131924.312000",
          "131926.812000",
          "131929.312000",
          "131931.812000",
          "131934.312000",
          "131936.812000",
          "131939.312000",
          "131941.812000",
          "131944.312000",
          "131946.812000",
          "131949.312000",
          "131951.812000",
          "131954.312000",
          "131956.812000",
          "131959.312000",
          "132001.812000",
          "132004.312000",
          "132006.812000",
          "132009.312000",
          "132011.812000",
          "132014.312000",
          "132016.812000",
          "132019.312000",
          "132021.812000",
          "132024.312000",
          "132026.812000",
          "132029.312000",
          "132031.812000",
          "132034.312000",
          "132036.812000",
          "132039.312000",
          "132041.812000",
          "132044.312000",
          "132046.812000",
          "132049.312000",
          "132051.812000",
          "132054.312000",
          "132056.812000",
          "132059.312000",
          "132101.812000",
          "132104.312000",
          "132106.812000",
          "132109.312000",
          "132111.812000",
          "132114.312000",
          "132116.812000",
          "132119.312000",
          "132121.812000",
          "132124.312000",
          "132126.812000",
          "132129.312000",
          "132131.812000",
          "132134.312000",
          "132136.812000",
          "132139.312000",
          "132141.812000",
          "132144.312000",
          "132146.812000",
          "132149.312000",
          "132151.812000",
          "132154.312000",
          "132156.812000",
          "132159.312000",
          "132201.812000",
          "132204.312000",
          "132206.812000",
          "132209.312000",
          "132211.812000",
          "132214.312000",
          "132216.812000",
          "132219.312000",
          "132221.812000",
          "132224.312000",
          "132226.812000",
          "132229.312000",
          "132231.812000",
          "132234.312000",
          "132236.812000",
          "132239.312000",
          "132241.812000",
          "132244.312000",
          "132246.812000",
          "132249.312000",
          "132251.812000",
          "132254.312000",
          "132256.812000",
          "132259.312000",
          "132301.812000",
          "132304.312000",
          "132306.812000",
          "132309.312000",
          "132311.812000",
          "132314.312000",
          "132316.812000",
          "132319.312000",
          "132321.812000",
          "132324.312000",
          "132326.812000",
          "132329.312000",
          "132331.812000",
          "132334.312000",
          "132336.812000",
          "132339.312000",
          "132341.812000",
          "132344.312000",
          "132346.812000",
          "132349.312000",
          "132351.812000",
          "132354.312000",
          "132356.812000",
          "132359.312000",
          "132401.812000",
          "132404.312000",
          "132406.812000",
          "132409.312000",
          "132411.812000",
          "132414.312000",
          "132416.812000",
          "132419.312000",
          "132421.812000",
          "132424.312000",
          "132426.812000",
          "132429.312000",
          "132431.671000"
        ],
        "InstanceCreationTime": [
          "131744.328000",
          "131746.812000",
          "131749.312000",
          "131751.812000",
          "131754.312000",
          "131756.812000",
          "131759.312000",
          "131801.812000",
          "131804.312000",
          "131806.812000",
          "131809.312000",
          "131811.812000",
          "131814.312000",
          "131816.812000",
          "131819.312000",
          "131821.812000",
          "131824.312000",
          "131826.812000",
          "131829.312000",
          "131831.812000",
          "131834.312000",
          "131836.812000",
          "131839.312000",
          "131841.812000",
          "131844.312000",
          "131846.812000",
          "131849.312000",
          "131851.812000",
          "131854.312000",
          "131856.812000",
          "131859.312000",
          "131901.812000",
          "131904.312000",
          "131906.812000",
          "131909.312000",
          "131911.812000",
          "131914.312000",
          "131916.812000",
          "131919.312000",
          "131921.812000",
          "131924.312000",
          "131926.812000",
          "131929.312000",
          "131931.812000",
          "131934.312000",
          "131936.812000",
          "131939.312000",
          "131941.812000",
          "131944.312000",
          "131946.812000",
          "131949.312000",
          "131951.812000",
          "131954.312000",
          "131956.812000",
          "131959.312000",
          "132001.812000",
          "132004.312000",
          "132006.812000",
          "132009.312000",
          "132011.812000",
          "132014.312000",
          "132016.812000",
          "132019.312000",
          "132021.812000",
          "132024.312000",
          "132026.812000",
          "132029.312000",
          "132031.812000",
          "132034.312000",
          "132036.812000",
          "132039.312000",
          "132041.812000",
          "132044.312000",
          "132046.812000",
          "132049.312000",
          "132051.812000",
          "132054.312000",
          "132056.812000",
          "132059.312000",
          "132101.812000",
          "132104.312000",
          "132106.812000",
          "132109.312000",
          "132111.812000",
          "132114.312000",
          "132116.812000",
          "132119.312000",
          "132121.812000",
          "132124.312000",
          "132126.812000",
          "132129.312000",
          "132131.812000",
          "132134.312000",
          "132136.812000",
          "132139.312000",
          "132141.812000",
          "132144.312000",
          "132146.812000",
          "132149.312000",
          "132151.812000",
          "132154.312000",
          "132156.812000",
          "132159.312000",
          "132201.812000",
          "132204.312000",
          "132206.812000",
          "132209.312000",
          "132211.812000",
          "132214.312000",
          "132216.812000",
          "132219.312000",
          "132221.812000",
          "132224.312000",
          "132226.812000",
          "132229.312000",
          "132231.812000",
          "132234.312000",
          "132236.812000",
          "132239.312000",
          "132241.812000",
          "132244.312000",
          "132246.812000",
          "132249.312000",
          "132251.812000",
          "132254.312000",
          "132256.812000",
          "132259.312000",
          "132301.812000",
          "132304.312000",
          "132306.812000",
          "132309.312000",
          "132311.812000",
          "132314.312000",
          "132316.812000",
          "132319.312000",
          "132321.812000",
          "132324.312000",
          "132326.812000",
          "132329.312000",
          "132331.812000",
          "132334.312000",
          "132336.812000",
          "132339.312000",
          "132341.812000",
          "132344.312000",
          "132346.812000",
          "132349.312000",
          "132351.812000",
          "132354.312000",
          "132356.812000",
          "132359.312000",
          "132401.812000",
          "132404.312000",
          "132406.812000",
          "132409.312000",
          "132411.812000",
          "132414.312000",
          "132416.812000",
          "132419.312000",
          "132421.812000",
          "132424.312000",
          "132426.812000",
          "132429.312000",
          "132431.671000"
        ],
        "InstanceNumber": [
          1,
          2,
          3,
          4,
          5,
          6,
          7,
          8,
          9,
          10,
          11,
          12,
          13,
          14,
          15,
          16,
          17,
          18,
          19,
          20,
          21,
          22,
          23,
          24,
          25,
          26,
          27,
          28,
          29,
          30,
          31,
          32,
          33,
          34,
          35,
          36,
          37,
          38,
          39,
          40,
          41,
          42,
          43,
          44,
          45,
          46,
          47,
          48,
          49,
          50,
          51,
          52,
          53,
          54,
          55,
          56,
          57,
          58,
          59,
          60,
          61,
          62,
          63,
          64,
          65,
          66,
          67,
          68,
          69,
          70,
          71,
          72,
          73,
          74,
          75,
          76,
          77,
          78,
          79,
          80,
          81,
          82,
          83,
          84,
          85,
          86,
          87,
          88,
          89,
          90,
          91,
          92,
          93,
          94,
          95,
          96,
          97,
          98,
          99,
          100,
          101,
          102,
          103,
          104,
          105,
          106,
          107,
          108,
          109,
          110,
          111,
          112,
          113,
          114,
          115,
          116,
          117,
          118,
          119,
          120,
          121,
          122,
          123,
          124,
          125,
          126,
          127,
          128,
          129,
          130,
          131,
          132,
          133,
          134,
          135,
          136,
          137,
          138,
          139,
          140,
          141,
          142,
          143,
          144,
          145,
          146,
          147,
          148,
          149,
          150,
          151,
          152,
          153,
          154,
          155,
          156,
          157,
          158,
          159,
          160,
          161,
          162,
          163,
          164
        ],
        "LargestImagePixelValue": [
          1419,
          1444,
          1599,
          1736,
          1421,
          1614,
          1404,
          1455,
          1408,
          1421,
          1408,
          1455,
          1416,
          1692,
          1831,
          1410,
          1590,
          1419,
          1418,
          1409,
          1404,
          1433,
          1408,
          1389,
          1412,
          1408,
          1396,
          1404,
          1487,
          1406,
          1637,
          1420,
          1608,
          1399,
          1402,
          1447,
          1399,
          1407,
          1438,
          1463,
          1428,
          1442,
          1433,
          1407,
          1420,
          1436,
          1396,
          1465,
          1390,
          1395,
          1399,
          1402,
          1406,
          1391,
          1658,
          1393,
          1405,
          1465,
          1391,
          1485,
          1579,
          1401,
          1401,
          1384,
          1404,
          1389,
          1451,
          1431,
          1402,
          1382,
          1395,
          1399,
          1380,
          1418,
          1406,
          1399,
          1400,
          1384,
          1411,
          1541,
          1398,
          1575,
          1396,
          1412,
          1386,
          1391,
          1401,
          1384,
          1391,
          1404,
          1406,
          1392,
          1405,
          1388,
          1398,
          1455,
          1391,
          1505,
          1398,
          1560,
          1386,
          1450,
          1383,
          1402,
          1397,
          1418,
          1378,
          1393,
          1404,
          1394,
          1390,
          1550,
          1395,
          1457,
          1392,
          1391,
          1385,
          1417,
          1373,
          1383,
          1400,
          1371,
          1367,
          1406,
          1368,
          1367,
          1394,
          1367,
          1392,
          1388,
          1357,
          1370,
          1415,
          1400,
          1368,
          1426,
          1373,
          1372,
          1471,
          1409,
          1434,
          1422,
          1800,
          1605,
          1896,
          2139,
          1403,
          1360,
          1399,
          1436,
          1477,
          1649,
          1403,
          1421,
          1484,
          1437,
          1587,
          1397,
          1427,
          1407,
          1350,
          1380,
          1967,
          1415
        ],
        "WindowCenter": [
          651.0,
          650.0,
          649.0,
          648.0,
          647.0,
          647.0,
          647.0,
          648.0,
          649.0,
          649.0,
          649.0,
          649.0,
          648.0,
          649.0,
          649.0,
          647.0,
          647.0,
          647.0,
          646.0,
          646.0,
          647.0,
          646.0,
          646.0,
          646.0,
          647.0,
          649.0,
          649.0,
          649.0,
          649.0,
          647.0,
          648.0,
          647.0,
          648.0,
          648.0,
          647.0,
          648.0,
          647.0,
          648.0,
          647.0,
          647.0,
          647.0,
          648.0,
          648.0,
          647.0,
          647.0,
          647.0,
          645.0,
          647.0,
          648.0,
          648.0,
          648.0,
          649.0,
          649.0,
          647.0,
          650.0,
          648.0,
          647.0,
          648.0,
          648.0,
          649.0,
          649.0,
          647.0,
          647.0,
          648.0,
          647.0,
          647.0,
          647.0,
          647.0,
          647.0,
          647.0,
          647.0,
          647.0,
          648.0,
          648.0,
          650.0,
          647.0,
          649.0,
          648.0,
          648.0,
          648.0,
          648.0,
          648.0,
          647.0,
          648.0,
          648.0,
          648.0,
          648.0,
          648.0,
          647.0,
          648.0,
          649.0,
          649.0,
          648.0,
          646.0,
          649.0,
          650.0,
          649.0,
          648.0,
          646.0,
          647.0,
          646.0,
          647.0,
          648.0,
          648.0,
          648.0,
          648.0,
          647.0,
          647.0,
          647.0,
          648.0,
          649.0,
          649.0,
          647.0,
          647.0,
          647.0,
          646.0,
          646.0,
          647.0,
          647.0,
          648.0,
          647.0,
          647.0,
          648.0,
          648.0,
          647.0,
          648.0,
          648.0,
          648.0,
          648.0,
          648.0,
          649.0,
          647.0,
          648.0,
          648.0,
          647.0,
          646.0,
          647.0,
          647.0,
          646.0,
          647.0,
          646.0,
          649.0,
          648.0,
          646.0,
          643.0,
          642.0,
          639.0,
          641.0,
