{
  "aor": 0.014377804878048782,
  "aqi": 0.022745815853658535,
  "bids_meta": {
    "AcquisitionMatrixPE": 64,
    "AcquisitionNumber": 1,
    "AcquisitionTime": "12:35:43.497500",
    "BandwidthPerPixelPhaseEncode": 26.483,
    "BaseResolution": 64,
    "BodyPartExamined": "HEAD",
    "CogAtlasID": "TODO",
    "ConversionSoftware": "dcm2niix",
    "ConversionSoftwareVersion": "v1.0.20171017 GCC6.3.0",
    "DerivedVendorReportedEchoSpacing": 0.000590001,
    "DeviceSerialNumber": "35177",
    "DwellTime": 4.1e-06,
    "EchoTime": 0.027,
    "EffectiveEchoSpacing": 0.000590001,
    "FlipAngle": 90,
    "ImageOrientationPatientDICOM": [
      0.996929,
      -0.062634,
      0.0470088,
      0.0604511,
      0.997087,
      0.0465048
    ],
    "ImageType": [
      "ORIGINAL",
      "PRIMARY",
      "M",
      "ND",
      "NORM",
      "MOSAIC"
    ],
    "InPlanePhaseEncodingDirectionDICOM": "COL",
    "InstitutionAddress": "Scott_Ave._4525_St._Louis_MO_US_63110",
    "InstitutionName": "Washington_University",
    "InstitutionalDepartmentName": "Department",
    "MRAcquisitionType": "2D",
    "MagneticFieldStrength": 3,
    "Manufacturer": "Siemens",
    "ManufacturersModelName": "TrioTim",
    "Modality": "MR",
    "PartialFourier": 1,
    "PatientPosition": "HFS",
    "PercentPhaseFOV": 100,
    "PhaseEncodingDirection": "j-",
    "PhaseEncodingSteps": 64,
    "PhaseResolution": 1,
    "PixelBandwidth": 1905,
    "ProcedureStepDescription": "head_GREENE",
    "ProtocolName": "ep2d_bold_rest1",
    "PulseSequenceDetails": "%SiemensSeq%_ep2d_bold",
    "ReceiveCoilName": "HeadMatrix",
    "ReconMatrixPE": 64,
    "RepetitionTime": 2.5,
    "SAR": 0.12745,
    "ScanOptions": "FS",
    "ScanningSequence": "EP",
    "SequenceName": "_epfid2d1_64",
    "SequenceVariant": "SK",
    "SeriesDescription": "ep2d_bold_rest1",
    "SeriesNumber": 5,
    "ShimSetting": [
      -189,
      -19533,
      7969,
      269,
      49,
      -564,
      244,
      -70
    ],
    "SliceThickness": 4,
    "SliceTiming": [
      1.255,
      0,
      1.3325,
      0.0775,
      1.41,
      0.1575,
      1.49,
      0.235,
      1.5675,
      0.3125,
      1.6475,
      0.3925,
      1.725,
      0.47,
      1.8025,
      0.5475,
      1.8825,
      0.6275,
      1.96,
      0.705,
      2.0375,
      0.785,
      2.1175,
      0.8625,
      2.195,
      0.94,
      2.275,
      1.02,
      2.3525,
      1.0975,
      2.43,
      1.175
    ],
    "SoftwareVersions": "syngo_MR_B17",
    "SpacingBetweenSlices": 4,
    "StationName": "MRC35177",
    "TaskName": "restbaseline",
    "TotalReadoutTime": 0.0371701,
    "TxRefAmp": 335.725,
    "dataset": "ds000256",
    "dcmmeta_affine": [
      [
        -3.987715482711792,
        0.24180446565151215,
        0.19913862645626068,
        120.3808364868164
      ],
      [
        0.25053614377975464,
        3.988348960876465,
        0.17408111691474915,
        -132.5615692138672
      ],
      [
        0.18803516030311584,
        -0.18601933121681213,
        3.991245746612549,
        -43.63548278808594
      ],
      [
        0.0,
        0.0,
        0.0,
        1.0
      ]
    ],
    "dcmmeta_reorient_transform": [
      [
        0.0,
        -1.0,
        0.0,
        63.0
      ],
      [
        1.0,
        0.0,
        0.0,
        0.0
      ],
      [
        0.0,
        0.0,
        1.0,
        0.0
      ],
      [
        0.0,
        0.0,
        0.0,
        1.0
      ]
    ],
    "dcmmeta_shape": [
      64,
      64,
      32,
      164
    ],
    "dcmmeta_slice_dim": 2,
    "dcmmeta_version": 0.6,
    "global": {
      "const": {
        "AccessionNumber": ".",
        "AcquisitionMatrix": [
          64,
          0,
          0,
          64
        ],
        "AngioFlag": "N",
        "BitsAllocated": 16,
        "BitsStored": 12,
        "BodyPartExamined": "HEAD",
        "Columns": 384,
        "DeidentificationMethodCodeSequence": [
          {
            "CodeMeaning": "XNAT Edit Script",
            "CodeValue": "625500",
            "CodingSchemeDesignator": "XNAT",
            "CodingSchemeVersion": "0.1"
          }
        ],
        "EchoNumbers": 1,
        "EchoTime": 27.0,
        "EchoTrainLength": 1,
        "FlipAngle": 90.0,
        "HighBit": 11,
        "ImageOrientationPatient": [
          0.99692885962054,
          -0.0626340353518,
          0.04700879142514,
          0.06045111524135,
          0.99708723946961,
          0.04650483365136
        ],
        "ImagePositionPatient": [
          -812.33769818731,
          -716.75447136079,
          -115.20342041862
        ],
        "ImageType": [
          "ORIGINAL",
          "PRIMARY",
          "M",
          "ND",
          "NORM",
          "MOSAIC"
        ],
        "ImagedNucleus": "1H",
        "ImagingFrequency": 123.25588,
        "InPlanePhaseEncodingDirection": "COL",
        "MRAcquisitionType": "2D",
        "MagneticFieldStrength": 3.0,
        "Manufacturer": "SIEMENS",
        "ManufacturerModelName": "TrioTim",
        "Modality": "MR",
        "NumberOfAverages": 1.0,
        "NumberOfPhaseEncodingSteps": 64,
        "PercentPhaseFieldOfView": 100.0,
        "PercentSampling": 100.0,
        "PerformedProcedureStepStartTime": "123052.937000",
        "PhotometricInterpretation": "MONOCHROME2",
        "PixelBandwidth": 1905.0,
        "PixelRepresentation": 0,
        "PixelSpacing": [
          4.0,
          4.0
        ],
        "PositionReferenceIndicator": "",
        "ProtocolName": "ep2d_bold_rest1",
        "RepetitionTime": 2500.0,
        "Rows": 384,
        "SAR": 0.12745018749552,
        "SamplesPerPixel": 1,
        "ScanOptions": "FS",
        "ScanningSequence": "EP",
        "SequenceName": "*epfid2d1_64",
        "SequenceVariant": "SK",
        "SeriesDescription": "ep2d_bold_rest1",
        "SeriesNumber": 5,
        "SeriesTime": "123545.281000",
        "SliceLocation": -43.315977267238,
        "SliceThickness": 4.0,
        "SmallestImagePixelValue": 0,
        "SoftwareVersions": "syngo MR B17",
        "SpacingBetweenSlices": 4.0000002722768,
        "SpecificCharacterSet": "ISO_IR 100",
        "StudyID": "1",
        "StudyTime": "123052.890000",
        "TransmitCoilName": "Body",
        "VariableFlipAngleFlag": "N",
        "WindowCenterWidthExplanation": "Algo1",
        "dBdt": 0.0
      },
      "slices": {}
    },
    "modality": "bold",
    "subject_id": "CTS218",
    "task_id": "restbaseline",
    "time": {
      "samples": {
        "AcquisitionNumber": [
          1,
          2,
          3,
          4,
          5,
          6,
          7,
          8,
          9,
          10,
          11,
          12,
          13,
          14,
          15,
          16,
          17,
          18,
          19,
          20,
          21,
          22,
          23,
          24,
          25,
          26,
          27,
          28,
          29,
          30,
          31,
          32,
          33,
          34,
          35,
          36,
          37,
          38,
          39,
          40,
          41,
          42,
          43,
          44,
          45,
          46,
          47,
          48,
          49,
          50,
          51,
          52,
          53,
          54,
          55,
          56,
          57,
          58,
          59,
          60,
          61,
          62,
          63,
          64,
          65,
          66,
          67,
          68,
          69,
          70,
          71,
          72,
          73,
          74,
          75,
          76,
          77,
          78,
          79,
          80,
          81,
          82,
          83,
          84,
          85,
          86,
          87,
          88,
          89,
          90,
          91,
          92,
          93,
          94,
          95,
          96,
          97,
          98,
          99,
          100,
          101,
          102,
          103,
          104,
          105,
          106,
          107,
          108,
          109,
          110,
          111,
          112,
          113,
          114,
          115,
          116,
          117,
          118,
          119,
          120,
          121,
          122,
          123,
          124,
          125,
          126,
          127,
          128,
          129,
          130,
          131,
          132,
          133,
          134,
          135,
          136,
          137,
          138,
          139,
          140,
          141,
          142,
          143,
          144,
          145,
          146,
          147,
          148,
          149,
          150,
          151,
          152,
          153,
          154,
          155,
          156,
          157,
          158,
          159,
          160,
          161,
          162,
          163,
          164
        ],
        "AcquisitionTime": [
          "123543.497500",
          "123546.007500",
          "123548.517500",
          "123551.027500",
          "123553.537500",
          "123556.047500",
          "123558.557500",
          "123601.067500",
          "123603.577500",
          "123606.087500",
          "123608.597500",
          "123611.107500",
          "123613.617500",
          "123616.127500",
          "123618.637500",
          "123621.147500",
          "123623.657500",
          "123626.167500",
          "123628.677500",
          "123631.187500",
          "123633.697500",
          "123636.207500",
          "123638.717500",
          "123641.227500",
          "123643.737500",
          "123646.247500",
          "123648.757500",
          "123651.267500",
          "123653.777500",
          "123656.287500",
          "123658.797500",
          "123701.307500",
          "123703.817500",
          "123706.327500",
          "123708.837500",
          "123711.347500",
          "123713.857500",
          "123716.367500",
          "123718.877500",
          "123721.387500",
          "123723.897500",
          "123726.407500",
          "123728.917500",
          "123731.427500",
          "123733.937500",
          "123736.447500",
          "123738.957500",
          "123741.467500",
          "123743.977500",
          "123746.490000",
          "123749.000000",
          "123751.510000",
          "123754.020000",
          "123756.530000",
          "123759.040000",
          "123801.550000",
          "123804.060000",
          "123806.570000",
          "123809.080000",
          "123811.590000",
          "123814.100000",
          "123816.610000",
          "123819.120000",
          "123821.630000",
          "123824.140000",
          "123826.650000",
          "123829.160000",
          "123831.670000",
          "123834.180000",
          "123836.690000",
          "123839.200000",
          "123841.710000",
          "123844.220000",
          "123846.730000",
          "123849.240000",
          "123851.750000",
          "123854.260000",
          "123856.770000",
          "123859.280000",
          "123901.790000",
          "123904.300000",
          "123906.810000",
          "123909.320000",
          "123911.830000",
          "123914.340000",
          "123916.850000",
          "123919.360000",
          "123921.870000",
          "123924.380000",
          "123926.890000",
          "123929.400000",
          "123931.910000",
          "123934.420000",
          "123936.930000",
          "123939.440000",
          "123941.950000",
          "123944.460000",
          "123946.970000",
          "123949.480000",
          "123951.990000",
          "123954.500000",
          "123957.010000",
          "123959.520000",
          "124002.030000",
          "124004.540000",
          "124007.050000",
          "124009.560000",
          "124012.070000",
          "124014.580000",
          "124017.090000",
          "124019.600000",
          "124022.112500",
          "124024.622500",
          "124027.132500",
          "124029.642500",
          "124032.152500",
          "124034.662500",
          "124037.172500",
          "124039.682500",
          "124042.192500",
          "124044.702500",
          "124047.212500",
          "124049.722500",
          "124052.232500",
          "124054.742500",
          "124057.252500",
          "124059.762500",
          "124102.272500",
          "124104.782500",
          "124107.292500",
          "124109.802500",
          "124112.312500",
          "124114.822500",
          "124117.332500",
          "124119.842500",
          "124122.352500",
          "124124.862500",
          "124127.372500",
          "124129.882500",
          "124132.392500",
          "124134.902500",
          "124137.412500",
          "124139.922500",
          "124142.432500",
          "124144.942500",
          "124147.452500",
          "124149.962500",
          "124152.472500",
          "124154.982500",
          "124157.492500",
          "124200.002500",
          "124202.512500",
          "124205.022500",
          "124207.532500",
          "124210.042500",
          "124212.552500",
          "124215.062500",
          "124217.572500",
          "124220.082500",
          "124222.592500",
          "124225.102500",
          "124227.612500",
          "124230.122500",
          "124232.632500"
        ],
        "ContentTime": [
          "123545.281000",
          "123547.781000",
          "123550.281000",
          "123552.781000",
          "123555.281000",
          "123557.781000",
          "123600.281000",
          "123602.781000",
          "123605.281000",
          "123607.781000",
          "123610.281000",
          "123612.781000",
          "123615.281000",
          "123617.781000",
          "123620.281000",
          "123622.781000",
          "123625.281000",
          "123627.781000",
          "123630.281000",
          "123632.781000",
          "123635.281000",
          "123637.781000",
          "123640.281000",
          "123642.781000",
          "123645.281000",
          "123647.781000",
          "123650.281000",
          "123652.781000",
          "123655.281000",
          "123657.781000",
          "123700.281000",
          "123702.781000",
          "123705.281000",
          "123707.781000",
          "123710.281000",
          "123712.781000",
          "123715.281000",
          "123717.781000",
          "123720.281000",
          "123722.781000",
          "123725.281000",
          "123727.781000",
          "123730.281000",
          "123732.781000",
          "123735.281000",
          "123737.781000",
          "123740.281000",
          "123742.781000",
          "123745.281000",
          "123747.781000",
          "123750.281000",
          "123752.781000",
          "123755.281000",
          "123757.781000",
          "123800.281000",
          "123802.781000",
          "123805.281000",
          "123807.781000",
          "123810.281000",
          "123812.781000",
          "123815.281000",
          "123817.781000",
          "123820.281000",
          "123822.781000",
          "123825.281000",
          "123827.781000",
          "123830.281000",
          "123832.781000",
          "123835.281000",
          "123837.781000",
          "123840.281000",
          "123842.781000",
          "123845.281000",
          "123847.781000",
          "123850.281000",
          "123852.781000",
          "123855.281000",
          "123857.781000",
          "123900.281000",
          "123902.781000",
          "123905.281000",
          "123907.781000",
          "123910.281000",
          "123912.781000",
          "123915.281000",
          "123917.781000",
          "123920.281000",
          "123922.781000",
          "123925.281000",
          "123927.781000",
          "123930.281000",
          "123932.781000",
          "123935.281000",
          "123937.781000",
          "123940.281000",
          "123942.781000",
          "123945.281000",
          "123947.781000",
          "123950.281000",
          "123952.781000",
          "123955.281000",
          "123957.781000",
          "124000.281000",
          "124002.781000",
          "124005.281000",
          "124007.781000",
          "124010.281000",
          "124012.781000",
          "124015.281000",
          "124017.781000",
          "124020.281000",
          "124022.781000",
          "124025.281000",
          "124027.781000",
          "124030.281000",
          "124032.781000",
          "124035.281000",
          "124037.781000",
          "124040.281000",
          "124042.781000",
          "124045.281000",
          "124047.781000",
          "124050.281000",
          "124052.781000",
          "124055.281000",
          "124057.781000",
          "124100.281000",
          "124102.781000",
          "124105.281000",
          "124107.781000",
          "124110.281000",
          "124112.781000",
          "124115.281000",
          "124117.781000",
          "124120.281000",
          "124122.781000",
          "124125.281000",
          "124127.781000",
          "124130.281000",
          "124132.781000",
          "124135.281000",
          "124137.781000",
          "124140.281000",
          "124142.781000",
          "124145.281000",
          "124147.781000",
          "124150.281000",
          "124152.781000",
          "124155.281000",
          "124157.781000",
          "124200.281000",
          "124202.781000",
          "124205.281000",
          "124207.781000",
          "124210.281000",
          "124212.781000",
          "124215.281000",
          "124217.781000",
          "124220.281000",
          "124222.781000",
          "124225.281000",
          "124227.781000",
          "124230.281000",
          "124232.453000"
        ],
        "InstanceCreationTime": [
          "123545.281000",
          "123547.781000",
          "123550.281000",
          "123552.781000",
          "123555.281000",
          "123557.781000",
          "123600.281000",
          "123602.781000",
          "123605.281000",
          "123607.781000",
          "123610.281000",
          "123612.781000",
          "123615.281000",
          "123617.781000",
          "123620.281000",
          "123622.781000",
          "123625.281000",
          "123627.781000",
          "123630.281000",
          "123632.781000",
          "123635.281000",
          "123637.781000",
          "123640.281000",
          "123642.781000",
          "123645.281000",
          "123647.781000",
          "123650.281000",
          "123652.781000",
          "123655.281000",
          "123657.781000",
          "123700.281000",
          "123702.781000",
          "123705.281000",
          "123707.781000",
          "123710.281000",
          "123712.781000",
          "123715.281000",
          "123717.781000",
          "123720.281000",
          "123722.781000",
          "123725.281000",
          "123727.781000",
          "123730.281000",
          "123732.781000",
          "123735.281000",
          "123737.781000",
          "123740.281000",
          "123742.781000",
          "123745.281000",
          "123747.781000",
          "123750.281000",
          "123752.781000",
          "123755.281000",
          "123757.781000",
          "123800.281000",
          "123802.781000",
          "123805.281000",
          "123807.781000",
          "123810.281000",
          "123812.781000",
          "123815.281000",
          "123817.781000",
          "123820.281000",
          "123822.781000",
          "123825.281000",
          "123827.781000",
          "123830.281000",
          "123832.781000",
          "123835.281000",
          "123837.781000",
          "123840.281000",
          "123842.781000",
          "123845.281000",
          "123847.781000",
          "123850.281000",
          "123852.781000",
          "123855.281000",
          "123857.781000",
          "123900.281000",
          "123902.781000",
          "123905.281000",
          "123907.781000",
          "123910.281000",
          "123912.781000",
          "123915.281000",
          "123917.781000",
          "123920.281000",
          "123922.781000",
          "123925.281000",
          "123927.781000",
          "123930.281000",
          "123932.781000",
          "123935.281000",
          "123937.781000",
          "123940.281000",
          "123942.781000",
          "123945.281000",
          "123947.781000",
          "123950.281000",
          "123952.781000",
          "123955.281000",
          "123957.781000",
          "124000.281000",
          "124002.781000",
          "124005.281000",
          "124007.781000",
          "124010.281000",
          "124012.781000",
          "124015.281000",
          "124017.781000",
          "124020.281000",
          "124022.781000",
          "124025.281000",
          "124027.781000",
          "124030.281000",
          "124032.781000",
          "124035.281000",
          "124037.781000",
          "124040.281000",
          "124042.781000",
          "124045.281000",
          "124047.781000",
          "124050.281000",
          "124052.781000",
          "124055.281000",
          "124057.781000",
          "124100.281000",
          "124102.781000",
          "124105.281000",
          "124107.781000",
          "124110.281000",
          "124112.781000",
          "124115.281000",
          "124117.781000",
          "124120.281000",
          "124122.781000",
          "124125.281000",
          "124127.781000",
          "124130.281000",
          "124132.781000",
          "124135.281000",
          "124137.781000",
          "124140.281000",
          "124142.781000",
          "124145.281000",
          "124147.781000",
          "124150.281000",
          "124152.781000",
          "124155.281000",
          "124157.781000",
          "124200.281000",
          "124202.781000",
          "124205.281000",
          "124207.781000",
          "124210.281000",
          "124212.781000",
          "124215.281000",
          "124217.781000",
          "124220.281000",
          "124222.781000",
          "124225.281000",
          "124227.781000",
          "124230.281000",
          "124232.453000"
        ],
        "InstanceNumber": [
          1,
          2,
          3,
          4,
          5,
          6,
          7,
          8,
          9,
          10,
          11,
          12,
          13,
          14,
          15,
          16,
          17,
          18,
          19,
          20,
          21,
          22,
          23,
          24,
          25,
          26,
          27,
          28,
          29,
          30,
          31,
          32,
          33,
          34,
          35,
          36,
          37,
          38,
          39,
          40,
          41,
          42,
          43,
          44,
          45,
          46,
          47,
          48,
          49,
          50,
          51,
          52,
          53,
          54,
          55,
          56,
          57,
          58,
          59,
          60,
          61,
          62,
          63,
          64,
          65,
          66,
          67,
          68,
          69,
          70,
          71,
          72,
          73,
          74,
          75,
          76,
          77,
          78,
          79,
          80,
          81,
          82,
          83,
          84,
          85,
          86,
          87,
          88,
          89,
          90,
          91,
          92,
          93,
          94,
          95,
          96,
          97,
          98,
          99,
          100,
          101,
          102,
          103,
          104,
          105,
          106,
          107,
          108,
          109,
          110,
          111,
          112,
          113,
          114,
          115,
          116,
          117,
          118,
          119,
          120,
          121,
          122,
          123,
          124,
          125,
          126,
          127,
          128,
          129,
          130,
          131,
          132,
          133,
          134,
          135,
          136,
          137,
          138,
          139,
          140,
          141,
          142,
          143,
          144,
          145,
          146,
          147,
          148,
          149,
          150,
          151,
          152,
          153,
          154,
          155,
          156,
          157,
          158,
          159,
          160,
          161,
          162,
          163,
          164
        ],
        "LargestImagePixelValue": [
          1496,
          1587,
          1678,
          1655,
          1633,
          1757,
          1542,
          1482,
          1587,
          1492,
          1481,
          1655,
          1543,
          1614,
          1469,
          1492,
          1772,
          1772,
          1479,
          1477,
          1456,
          1549,
          1493,
          1749,
          1545,
          1668,
          1557,
          1486,
          1610,
          1487,
          1403,
          1555,
          1705,
          1987,
          1525,
          1450,
          1457,
          1464,
          1456,
          1544,
          1490,
          1514,
          1730,
          1666,
          1553,
          1498,
          1498,
          1475,
          1502,
          1477,
          1486,
          1470,
          1364,
          1484,
          1500,
          1625,
          2050,
          1474,
          1456,
          1467,
          1465,
          1461,
          1435,
          1423,
          1566,
          1833,
          1832,
          1468,
          1423,
          1703,
          1655,
          1618,
          1658,
          1489,
          1840,
          1622,
          1455,
          1524,
          1727,
          1663,
          1564,
          1713,
          1439,
          1484,
          1765,
          1683,
          1457,
          1498,
          1544,
          1472,
          1458,
          1448,
          1782,
          1658,
          1558,
          1461,
          1536,
          1715,
          1447,
          1624,
          1618,
          1509,
          1459,
          1447,
          1447,
          1773,
          1509,
          1538,
          1432,
          1444,
          1635,
          1558,
          1457,
          1491,
          1680,
          1552,
          1453,
          1451,
          1764,
          1514,
          1448,
          1443,
          1491,
          1663,
          1438,
          1447,
          1462,
          1441,
          1448,
          1446,
          1450,
          1507,
          1583,
          1568,
          1512,
          1447,
          1424,
          1436,
          1449,
          1401,
          1610,
          1718,
          1650,
          1902,
          1460,
          1577,
          1446,
          1435,
          1621,
          1440,
          1410,
          1472,
          1344,
          2119,
          1954,
          1566,
          1408,
          1416,
          1445,
          1683,
          1636,
          1419,
          1404,
          1424
        ],
        "WindowCenter": [
          644.0,
          643.0,
          643.0,
          642.0,
          641.0,
          642.0,
          641.0,
          641.0,
          640.0,
          639.0,
          641.0,
          641.0,
          641.0,
          641.0,
          640.0,
          643.0,
          642.0,
          640.0,
          640.0,
          640.0,
          641.0,
          641.0,
          642.0,
          642.0,
          640.0,
          641.0,
          641.0,
          641.0,
          640.0,
          636.0,
          641.0,
          642.0,
          640.0,
          639.0,
          637.0,
          638.0,
          640.0,
          641.0,
          642.0,
          643.0,
          643.0,
          642.0,
          643.0,
          642.0,
          640.0,
          641.0,
          640.0,
          639.0,
          639.0,
          639.0,
          639.0,
          639.0,
          639.0,
          641.0,
          641.0,
          644.0,
          640.0,
          636.0,
          638.0,
          639.0,
          641.0,
          642.0,
          639.0,
          643.0,
          643.0,
          641.0,
          640.0,
          639.0,
          639.0,
          642.0,
          642.0,
          643.0,
          642.0,
          642.0,
          642.0,
          641.0,
          640.0,
          640.0,
          641.0,
          642.0,
          642.0,
          642.0,
          641.0,
          642.0,
          642.0,
          640.0,
          639.0,
          640.0,
          640.0,
          640.0,
          642.0,
          642.0,
          644.0,
          641.0,
          641.0,
          641.0,
          641.0,
          642.0,
          640.0,
          640.0,
          641.0,
          640.0,
          641.0,
          641.0,
          641.0,
          641.0,
          641.0,
          642.0,
          640.0,
          641.0,
          641.0,
          642.0,
          641.0,
          641.0,
          642.0,
          642.0,
          641.0,
          640.0,
          641.0,
          641.0,
          641.0,
          640.0,
          640.0,
          641.0,
          642.0,
          640.0,
          640.0,
          641.0,
          641.0,
          642.0,
          642.0,
          642.0,
          642.0,
          641.0,
          642.0,
          641.0,
          641.0,
          639.0,
          639.0,
          642.0,
          639.0,
          640.0,
          640.0,
          639.0,
          636.0,
          637.0,
          638.0,
          641.0,
          643.0,
          640.0,
          640.0,
