{
  "aor": 0.010794999999999999,
  "aqi": 0.017274621341463414,
  "bids_meta": {
    "AcquisitionMatrixPE": 64,
    "AcquisitionNumber": 1,
    "AcquisitionTime": "13:01:2.005000",
    "BandwidthPerPixelPhaseEncode": 26.483,
    "BaseResolution": 64,
    "BodyPartExamined": "HEAD",
    "CogAtlasID": "TODO",
    "ConversionSoftware": "dcm2niix",
    "ConversionSoftwareVersion": "v1.0.20171017 GCC6.3.0",
    "DerivedVendorReportedEchoSpacing": 0.000590001,
    "DeviceSerialNumber": "35177",
    "DwellTime": 4.1e-06,
    "EchoTime": 0.027,
    "EffectiveEchoSpacing": 0.000590001,
    "FlipAngle": 90,
    "ImageOrientationPatientDICOM": [
      0.996929,
      -0.062634,
      0.0470088,
      0.0604511,
      0.997087,
      0.0465048
    ],
    "ImageType": [
      "ORIGINAL",
      "PRIMARY",
      "M",
      "ND",
      "NORM",
      "MOSAIC"
    ],
    "InPlanePhaseEncodingDirectionDICOM": "COL",
    "InstitutionAddress": "Scott_Ave._4525_St._Louis_MO_US_63110",
    "InstitutionName": "Washington_University",
    "InstitutionalDepartmentName": "Department",
    "MRAcquisitionType": "2D",
    "MagneticFieldStrength": 3,
    "Manufacturer": "Siemens",
    "ManufacturersModelName": "TrioTim",
    "Modality": "MR",
    "PartialFourier": 1,
    "PatientPosition": "HFS",
    "PercentPhaseFOV": 100,
    "PhaseEncodingDirection": "j-",
    "PhaseEncodingSteps": 64,
    "PhaseResolution": 1,
    "PixelBandwidth": 1905,
    "ProcedureStepDescription": "head_GREENE",
    "ProtocolName": "ep2d_bold_rest2",
    "PulseSequenceDetails": "%SiemensSeq%_ep2d_bold",
    "ReceiveCoilName": "HeadMatrix",
    "ReconMatrixPE": 64,
    "RepetitionTime": 2.5,
    "SAR": 0.12745,
    "ScanOptions": "FS",
    "ScanningSequence": "EP",
    "SequenceName": "_epfid2d1_64",
    "SequenceVariant": "SK",
    "SeriesDescription": "ep2d_bold_rest2",
    "SeriesNumber": 8,
    "ShimSetting": [
      -189,
      -19533,
      7969,
      269,
      49,
      -564,
      244,
      -70
    ],
    "SliceThickness": 4,
    "SliceTiming": [
      1.255,
      0,
      1.335,
      0.08,
      1.4125,
      0.1575,
      1.49,
      0.235,
      1.57,
      0.315,
      1.6475,
      0.3925,
      1.725,
      0.4725,
      1.805,
      0.55,
      1.8825,
      0.6275,
      1.9625,
      0.7075,
      2.04,
      0.785,
      2.1175,
      0.8625,
      2.1975,
      0.9425,
      2.275,
      1.02,
      2.3525,
      1.0975,
      2.4325,
      1.1775
    ],
    "SoftwareVersions": "syngo_MR_B17",
    "SpacingBetweenSlices": 4,
    "StationName": "MRC35177",
    "TaskName": "restfixationnofeedback",
    "TotalReadoutTime": 0.0371701,
    "TxRefAmp": 335.725,
    "dataset": "ds000256",
    "dcmmeta_affine": [
      [
        -3.987715482711792,
        0.24180446565151215,
        0.1991386115550995,
        120.38082885742188
      ],
      [
        0.25053614377975464,
        3.988348960876465,
        0.17408111691474915,
        -132.5615692138672
      ],
      [
        0.18803516030311584,
        -0.18601933121681213,
        3.9912455081939697,
        -43.6354866027832
      ],
      [
        0.0,
        0.0,
        0.0,
        1.0
      ]
    ],
    "dcmmeta_reorient_transform": [
      [
        0.0,
        -1.0,
        0.0,
        63.0
      ],
      [
        1.0,
        0.0,
        0.0,
        0.0
      ],
      [
        0.0,
        0.0,
        1.0,
        0.0
      ],
      [
        0.0,
        0.0,
        0.0,
        1.0
      ]
    ],
    "dcmmeta_shape": [
      64,
      64,
      32,
      164
    ],
    "dcmmeta_slice_dim": 2,
    "dcmmeta_version": 0.6,
    "global": {
      "const": {
        "AccessionNumber": ".",
        "AcquisitionMatrix": [
          64,
          0,
          0,
          64
        ],
        "AngioFlag": "N",
        "BitsAllocated": 16,
        "BitsStored": 12,
        "BodyPartExamined": "HEAD",
        "Columns": 384,
        "DeidentificationMethodCodeSequence": [
          {
            "CodeMeaning": "XNAT Edit Script",
            "CodeValue": "625500",
            "CodingSchemeDesignator": "XNAT",
            "CodingSchemeVersion": "0.1"
          }
        ],
        "EchoNumbers": 1,
        "EchoTime": 27.0,
        "EchoTrainLength": 1,
        "FlipAngle": 90.0,
        "HighBit": 11,
        "ImageOrientationPatient": [
          0.99692885962054,
          -0.0626340353518,
          0.04700879142514,
          0.06045111524135,
          0.99708723946961,
          0.04650483365136
        ],
        "ImagePositionPatient": [
          -812.33769717403,
          -716.75447070514,
          -115.20342423331
        ],
        "ImageType": [
          "ORIGINAL",
          "PRIMARY",
          "M",
          "ND",
          "NORM",
          "MOSAIC"
        ],
        "ImagedNucleus": "1H",
        "ImagingFrequency": 123.255882,
        "InPlanePhaseEncodingDirection": "COL",
        "MRAcquisitionType": "2D",
        "MagneticFieldStrength": 3.0,
        "Manufacturer": "SIEMENS",
        "ManufacturerModelName": "TrioTim",
        "Modality": "MR",
        "NumberOfAverages": 1.0,
        "NumberOfPhaseEncodingSteps": 64,
        "PercentPhaseFieldOfView": 100.0,
        "PercentSampling": 100.0,
        "PerformedProcedureStepStartTime": "123052.937000",
        "PhotometricInterpretation": "MONOCHROME2",
        "PixelBandwidth": 1905.0,
        "PixelRepresentation": 0,
        "PixelSpacing": [
          4.0,
          4.0
        ],
        "PositionReferenceIndicator": "",
        "ProtocolName": "ep2d_bold_rest2",
        "RepetitionTime": 2500.0,
        "Rows": 384,
        "SAR": 0.12745018749552,
        "SamplesPerPixel": 1,
        "ScanOptions": "FS",
        "ScanningSequence": "EP",
        "SequenceName": "*epfid2d1_64",
        "SequenceVariant": "SK",
        "SeriesDescription": "ep2d_bold_rest2",
        "SeriesNumber": 8,
        "SeriesTime": "130103.515000",
        "SliceLocation": -43.315981152566,
        "SliceThickness": 4.0,
        "SmallestImagePixelValue": 0,
        "SoftwareVersions": "syngo MR B17",
        "SpacingBetweenSlices": 4.0000001490724,
        "SpecificCharacterSet": "ISO_IR 100",
        "StudyID": "1",
        "StudyTime": "123052.890000",
        "TransmitCoilName": "Body",
        "VariableFlipAngleFlag": "N",
        "WindowCenterWidthExplanation": "Algo1",
        "dBdt": 0.0
      },
      "slices": {}
    },
    "modality": "bold",
    "subject_id": "CTS218",
    "task_id": "restfixationnofeedback",
    "time": {
      "samples": {
        "AcquisitionNumber": [
          1,
          2,
          3,
          4,
          5,
          6,
          7,
          8,
          9,
          10,
          11,
          12,
          13,
          14,
          15,
          16,
          17,
          18,
          19,
          20,
          21,
          22,
          23,
          24,
          25,
          26,
          27,
          28,
          29,
          30,
          31,
          32,
          33,
          34,
          35,
          36,
          37,
          38,
          39,
          40,
          41,
          42,
          43,
          44,
          45,
          46,
          47,
          48,
          49,
          50,
          51,
          52,
          53,
          54,
          55,
          56,
          57,
          58,
          59,
          60,
          61,
          62,
          63,
          64,
          65,
          66,
          67,
          68,
          69,
          70,
          71,
          72,
          73,
          74,
          75,
          76,
          77,
          78,
          79,
          80,
          81,
          82,
          83,
          84,
          85,
          86,
          87,
          88,
          89,
          90,
          91,
          92,
          93,
          94,
          95,
          96,
          97,
          98,
          99,
          100,
          101,
          102,
          103,
          104,
          105,
          106,
          107,
          108,
          109,
          110,
          111,
          112,
          113,
          114,
          115,
          116,
          117,
          118,
          119,
          120,
          121,
          122,
          123,
          124,
          125,
          126,
          127,
          128,
          129,
          130,
          131,
          132,
          133,
          134,
          135,
          136,
          137,
          138,
          139,
          140,
          141,
          142,
          143,
          144,
          145,
          146,
          147,
          148,
          149,
          150,
          151,
          152,
          153,
          154,
          155,
          156,
          157,
          158,
          159,
          160,
          161,
          162,
          163,
          164
        ],
        "AcquisitionTime": [
          "130102.005000",
          "130104.515000",
          "130107.025000",
          "130109.535000",
          "130112.045000",
          "130114.555000",
          "130117.065000",
          "130119.575000",
          "130122.085000",
          "130124.595000",
          "130127.105000",
          "130129.615000",
          "130132.125000",
          "130134.635000",
          "130137.145000",
          "130139.655000",
          "130142.165000",
          "130144.675000",
          "130147.187500",
          "130149.697500",
          "130152.207500",
          "130154.717500",
          "130157.227500",
          "130159.737500",
          "130202.247500",
          "130204.757500",
          "130207.267500",
          "130209.777500",
          "130212.287500",
          "130214.797500",
          "130217.307500",
          "130219.817500",
          "130222.327500",
          "130224.837500",
          "130227.347500",
          "130229.857500",
          "130232.367500",
          "130234.877500",
          "130237.387500",
          "130239.897500",
          "130242.407500",
          "130244.917500",
          "130247.427500",
          "130249.937500",
          "130252.447500",
          "130254.957500",
          "130257.467500",
          "130259.977500",
          "130302.487500",
          "130304.997500",
          "130307.507500",
          "130310.017500",
          "130312.527500",
          "130315.037500",
          "130317.547500",
          "130320.057500",
          "130322.567500",
          "130325.077500",
          "130327.587500",
          "130330.097500",
          "130332.607500",
          "130335.117500",
          "130337.627500",
          "130340.137500",
          "130342.647500",
          "130345.157500",
          "130347.667500",
          "130350.177500",
          "130352.687500",
          "130355.197500",
          "130357.707500",
          "130400.217500",
          "130402.727500",
          "130405.237500",
          "130407.747500",
          "130410.257500",
          "130412.767500",
          "130415.277500",
          "130417.787500",
          "130420.297500",
          "130422.810000",
          "130425.320000",
          "130427.830000",
          "130430.340000",
          "130432.850000",
          "130435.360000",
          "130437.870000",
          "130440.380000",
          "130442.890000",
          "130445.400000",
          "130447.910000",
          "130450.420000",
          "130452.930000",
          "130455.440000",
          "130457.950000",
          "130500.460000",
          "130502.970000",
          "130505.480000",
          "130507.990000",
          "130510.500000",
          "130513.010000",
          "130515.520000",
          "130518.030000",
          "130520.540000",
          "130523.050000",
          "130525.560000",
          "130528.070000",
          "130530.580000",
          "130533.090000",
          "130535.600000",
          "130538.110000",
          "130540.620000",
          "130543.130000",
          "130545.640000",
          "130548.150000",
          "130550.660000",
          "130553.170000",
          "130555.680000",
          "130558.190000",
          "130600.700000",
          "130603.210000",
          "130605.720000",
          "130608.230000",
          "130610.740000",
          "130613.250000",
          "130615.760000",
          "130618.270000",
          "130620.780000",
          "130623.290000",
          "130625.800000",
          "130628.310000",
          "130630.820000",
          "130633.330000",
          "130635.840000",
          "130638.350000",
          "130640.860000",
          "130643.370000",
          "130645.880000",
          "130648.390000",
          "130650.900000",
          "130653.410000",
          "130655.920000",
          "130658.430000",
          "130700.942500",
          "130703.452500",
          "130705.962500",
          "130708.472500",
          "130710.982500",
          "130713.492500",
          "130716.002500",
          "130718.512500",
          "130721.022500",
          "130723.532500",
          "130726.042500",
          "130728.552500",
          "130731.062500",
          "130733.572500",
          "130736.082500",
          "130738.592500",
          "130741.102500",
          "130743.612500",
          "130746.122500",
          "130748.632500",
          "130751.142500"
        ],
        "ContentTime": [
          "130103.515000",
          "130106.015000",
          "130108.515000",
          "130111.015000",
          "130113.515000",
          "130116.015000",
          "130118.515000",
          "130121.015000",
          "130123.515000",
          "130126.015000",
          "130128.515000",
          "130131.015000",
          "130133.515000",
          "130136.015000",
          "130138.515000",
          "130141.015000",
          "130143.515000",
          "130146.015000",
          "130148.515000",
          "130151.015000",
          "130153.515000",
          "130156.015000",
          "130158.515000",
          "130201.015000",
          "130203.515000",
          "130206.015000",
          "130208.515000",
          "130211.015000",
          "130213.515000",
          "130216.015000",
          "130218.515000",
          "130221.015000",
          "130223.515000",
          "130226.015000",
          "130228.515000",
          "130231.015000",
          "130233.515000",
          "130236.015000",
          "130238.515000",
          "130241.015000",
          "130243.515000",
          "130246.015000",
          "130248.515000",
          "130251.015000",
          "130253.515000",
          "130256.015000",
          "130258.515000",
          "130301.015000",
          "130303.515000",
          "130306.015000",
          "130308.515000",
          "130311.015000",
          "130313.515000",
          "130316.015000",
          "130318.515000",
          "130321.015000",
          "130323.515000",
          "130326.015000",
          "130328.515000",
          "130331.015000",
          "130333.515000",
          "130336.015000",
          "130338.515000",
          "130341.015000",
          "130343.515000",
          "130346.015000",
          "130348.515000",
          "130351.015000",
          "130353.515000",
          "130356.015000",
          "130358.515000",
          "130401.015000",
          "130403.515000",
          "130406.015000",
          "130408.515000",
          "130411.015000",
          "130414.015000",
          "130416.015000",
          "130418.515000",
          "130421.015000",
          "130423.515000",
          "130426.015000",
          "130428.515000",
          "130431.015000",
          "130433.515000",
          "130436.015000",
          "130438.515000",
          "130441.015000",
          "130443.515000",
          "130446.015000",
          "130448.515000",
          "130451.015000",
          "130453.515000",
          "130456.015000",
          "130458.515000",
          "130501.015000",
          "130503.515000",
          "130506.015000",
          "130508.515000",
          "130511.015000",
          "130513.515000",
          "130516.015000",
          "130518.515000",
          "130521.515000",
          "130523.515000",
          "130526.015000",
          "130528.515000",
          "130531.015000",
          "130533.515000",
          "130536.015000",
          "130538.515000",
          "130541.015000",
          "130543.515000",
          "130546.015000",
          "130548.515000",
          "130551.015000",
          "130553.515000",
          "130556.015000",
          "130558.515000",
          "130601.015000",
          "130603.515000",
          "130606.015000",
          "130608.515000",
          "130611.015000",
          "130613.515000",
          "130616.015000",
          "130618.515000",
          "130621.015000",
          "130623.515000",
          "130626.015000",
          "130628.515000",
          "130631.015000",
          "130633.515000",
          "130636.015000",
          "130638.515000",
          "130641.015000",
          "130643.515000",
          "130646.015000",
          "130648.515000",
          "130651.015000",
          "130653.515000",
          "130656.015000",
          "130658.515000",
          "130701.015000",
          "130703.515000",
          "130706.015000",
          "130708.515000",
          "130711.015000",
          "130713.515000",
          "130716.015000",
          "130718.515000",
          "130721.015000",
          "130723.515000",
          "130726.015000",
          "130728.515000",
          "130731.015000",
          "130733.515000",
          "130736.015000",
          "130738.515000",
          "130741.015000",
          "130743.515000",
          "130746.015000",
          "130748.515000",
          "130750.984000"
        ],
        "InstanceCreationTime": [
          "130103.515000",
          "130106.015000",
          "130108.515000",
          "130111.015000",
          "130113.515000",
          "130116.015000",
          "130118.515000",
          "130121.015000",
          "130123.515000",
          "130126.015000",
          "130128.515000",
          "130131.015000",
          "130133.515000",
          "130136.015000",
          "130138.515000",
          "130141.015000",
          "130143.515000",
          "130146.015000",
          "130148.515000",
          "130151.015000",
          "130153.515000",
          "130156.015000",
          "130158.515000",
          "130201.015000",
          "130203.515000",
          "130206.015000",
          "130208.515000",
          "130211.015000",
          "130213.515000",
          "130216.015000",
          "130218.515000",
          "130221.015000",
          "130223.515000",
          "130226.015000",
          "130228.515000",
          "130231.015000",
          "130233.515000",
          "130236.015000",
          "130238.515000",
          "130241.015000",
          "130243.515000",
          "130246.015000",
          "130248.515000",
          "130251.015000",
          "130253.515000",
          "130256.015000",
          "130258.515000",
          "130301.015000",
          "130303.515000",
          "130306.015000",
          "130308.515000",
          "130311.015000",
          "130313.515000",
          "130316.015000",
          "130318.515000",
          "130321.015000",
          "130323.515000",
          "130326.015000",
          "130328.515000",
          "130331.015000",
          "130333.515000",
          "130336.015000",
          "130338.515000",
          "130341.015000",
          "130343.515000",
          "130346.015000",
          "130348.515000",
          "130351.015000",
          "130353.515000",
          "130356.015000",
          "130358.515000",
          "130401.015000",
          "130403.515000",
          "130406.015000",
          "130408.515000",
          "130411.015000",
          "130414.015000",
          "130416.015000",
          "130418.515000",
          "130421.015000",
          "130423.515000",
          "130426.015000",
          "130428.515000",
          "130431.015000",
          "130433.515000",
          "130436.015000",
          "130438.515000",
          "130441.015000",
          "130443.515000",
          "130446.015000",
          "130448.515000",
          "130451.015000",
          "130453.515000",
          "130456.015000",
          "130458.515000",
          "130501.015000",
          "130503.515000",
          "130506.015000",
          "130508.515000",
          "130511.015000",
          "130513.515000",
          "130516.015000",
          "130518.515000",
          "130521.515000",
          "130523.515000",
          "130526.015000",
          "130528.515000",
          "130531.015000",
          "130533.515000",
          "130536.015000",
          "130538.515000",
          "130541.015000",
          "130543.515000",
          "130546.015000",
          "130548.515000",
          "130551.015000",
          "130553.515000",
          "130556.015000",
          "130558.515000",
          "130601.015000",
          "130603.515000",
          "130606.015000",
          "130608.515000",
          "130611.015000",
          "130613.515000",
          "130616.015000",
          "130618.515000",
          "130621.015000",
          "130623.515000",
          "130626.015000",
          "130628.515000",
          "130631.015000",
          "130633.515000",
          "130636.015000",
          "130638.515000",
          "130641.015000",
          "130643.515000",
          "130646.015000",
          "130648.515000",
          "130651.015000",
          "130653.515000",
          "130656.015000",
          "130658.515000",
          "130701.015000",
          "130703.515000",
          "130706.015000",
          "130708.515000",
          "130711.015000",
          "130713.515000",
          "130716.015000",
          "130718.515000",
          "130721.015000",
          "130723.515000",
          "130726.015000",
          "130728.515000",
          "130731.015000",
          "130733.515000",
          "130736.015000",
          "130738.515000",
          "130741.015000",
          "130743.515000",
          "130746.015000",
          "130748.515000",
          "130750.984000"
        ],
        "InstanceNumber": [
          1,
          2,
          3,
          4,
          5,
          6,
          7,
          8,
          9,
          10,
          11,
          12,
          13,
          14,
          15,
          16,
          17,
          18,
          19,
          20,
          21,
          22,
          23,
          24,
          25,
          26,
          27,
          28,
          29,
          30,
          31,
          32,
          33,
          34,
          35,
          36,
          37,
          38,
          39,
          40,
          41,
          42,
          43,
          44,
          45,
          46,
          47,
          48,
          49,
          50,
          51,
          52,
          53,
          54,
          55,
          56,
          57,
          58,
          59,
          60,
          61,
          62,
          63,
          64,
          65,
          66,
          67,
          68,
          69,
          70,
          71,
          72,
          73,
          74,
          75,
          76,
          77,
          78,
          79,
          80,
          81,
          82,
          83,
          84,
          85,
          86,
          87,
          88,
          89,
          90,
          91,
          92,
          93,
          94,
          95,
          96,
          97,
          98,
          99,
          100,
          101,
          102,
          103,
          104,
          105,
          106,
          107,
          108,
          109,
          110,
          111,
          112,
          113,
          114,
          115,
          116,
          117,
          118,
          119,
          120,
          121,
          122,
          123,
          124,
          125,
          126,
          127,
          128,
          129,
          130,
          131,
          132,
          133,
          134,
          135,
          136,
          137,
          138,
          139,
          140,
          141,
          142,
          143,
          144,
          145,
          146,
          147,
          148,
          149,
          150,
          151,
          152,
          153,
          154,
          155,
          156,
          157,
          158,
          159,
          160,
          161,
          162,
          163,
          164
        ],
        "LargestImagePixelValue": [
          1743,
          1400,
          1386,
          1398,
          1407,
          1682,
          1426,
          1584,
          1423,
          1415,
          1541,
          1545,
          1413,
          1811,
          1528,
          1422,
          1446,
          1443,
          1435,
          1568,
          1427,
          1553,
          1494,
          1438,
          1444,
          1542,
          1722,
          1450,
          1424,
          1541,
          1465,
          1456,
          1492,
          1449,
          1568,
          1520,
          1482,
          1431,
          1531,
          1567,
          1450,
          1947,
          1512,
          1617,
          1413,
          1628,
          1399,
          1521,
          1524,
          1662,
          1476,
          1471,
          1619,
          1464,
          1387,
          1511,
          1407,
          1531,
          1469,
          1412,
          1384,
          1475,
          1571,
          1682,
          1648,
          1604,
          1620,
          1744,
          1468,
          1478,
          1403,
          1398,
          1725,
          1576,
          1628,
          1380,
          1387,
          1395,
          1489,
          1617,
          1499,
          1397,
          1528,
          1519,
          1373,
          1415,
          1531,
          1423,
          1516,
          1484,
          1413,
          1926,
          1505,
          1394,
          1548,
          1559,
          1541,
          1373,
          1402,
          1408,
          1368,
          1504,
          1424,
          1377,
          1567,
          1530,
          1590,
          1453,
          1402,
          1385,
          1470,
          1421,
          1593,
          1750,
          1562,
          1369,
          1597,
          1357,
          1374,
          1496,
          1580,
          1376,
          1560,
          1459,
          1789,
          1476,
          1464,
          1382,
          1534,
          1462,
          1566,
          1410,
          1454,
          1427,
          1530,
          1770,
          1513,
          1394,
          1390,
          1789,
          1547,
          1494,
          1451,
          1477,
          1443,
          1384,
          1379,
          1388,
          1457,
          1420,
          1540,
          1413,
          1542,
          1412,
          1426,
          1402,
          1485,
          1783,
          1589,
          1437,
          1366,
          1382,
          1691,
          1433
        ],
        "WindowCenter": [
          644.0,
          643.0,
          644.0,
          646.0,
          647.0,
          648.0,
          647.0,
          647.0,
          646.0,
          646.0,
          645.0,
          641.0,
          646.0,
          645.0,
          642.0,
          642.0,
          644.0,
          647.0,
          646.0,
          646.0,
          645.0,
          645.0,
          645.0,
          646.0,
          645.0,
          647.0,
          646.0,
          646.0,
          646.0,
          647.0,
          646.0,
          646.0,
          645.0,
          647.0,
          646.0,
          646.0,
          647.0,
          647.0,
          646.0,
          646.0,
          645.0,
          646.0,
          644.0,
          646.0,
          646.0,
          646.0,
          645.0,
          647.0,
          648.0,
          646.0,
          645.0,
          646.0,
          647.0,
          646.0,
          646.0,
          645.0,
          647.0,
          647.0,
          646.0,
          646.0,
          646.0,
          648.0,
          648.0,
          648.0,
          648.0,
          647.0,
          646.0,
          646.0,
          646.0,
          645.0,
          646.0,
          648.0,
          647.0,
          646.0,
          646.0,
          645.0,
          646.0,
          648.0,
          647.0,
          647.0,
          645.0,
          645.0,
          646.0,
          647.0,
          646.0,
          647.0,
          647.0,
          647.0,
          647.0,
          647.0,
          646.0,
          646.0,
          645.0,
          646.0,
          645.0,
          646.0,
          645.0,
          645.0,
          646.0,
          646.0,
          647.0,
          646.0,
          648.0,
          647.0,
          647.0,
          646.0,
          647.0,
          645.0,
          646.0,
          647.0,
          647.0,
          649.0,
          647.0,
          646.0,
          646.0,
          644.0,
          646.0,
          646.0,
          646.0,
          647.0,
          646.0,
          645.0,
          647.0,
          647.0,
          646.0,
          644.0,
          645.0,
          646.0,
          646.0,
          644.0,
          643.0,
          645.0,
          646.0,
          646.0,
          644.0,
          646.0,
          644.0,
          644.0,
          645.0,
          646.0,
          645.0,
          645.0,
          645.0,
          647.0,
          647.0,
          645.0,
          647.0,
          647.0,
          647.0,
          648.0,
