{
  "aor": 0.009815243902439026,
  "aqi": 0.02118453457317073,
  "bids_meta": {
    "AcquisitionMatrixPE": 64,
    "AcquisitionNumber": 1,
    "AcquisitionTime": "12:53:16.260000",
    "BandwidthPerPixelPhaseEncode": 26.483,
    "BaseResolution": 64,
    "BodyPartExamined": "HEAD",
    "CogAtlasID": "TODO",
    "ConversionSoftware": "dcm2niix",
    "ConversionSoftwareVersion": "v1.0.20171017 GCC6.3.0",
    "DerivedVendorReportedEchoSpacing": 0.000590001,
    "DeviceSerialNumber": "35177",
    "DwellTime": 4.1e-06,
    "EchoTime": 0.027,
    "EffectiveEchoSpacing": 0.000590001,
    "FlipAngle": 90,
    "ImageOrientationPatientDICOM": [
      0.996929,
      -0.062634,
      0.0470088,
      0.0604511,
      0.997087,
      0.0465048
    ],
    "ImageType": [
      "ORIGINAL",
      "PRIMARY",
      "M",
      "ND",
      "NORM",
      "MOSAIC"
    ],
    "InPlanePhaseEncodingDirectionDICOM": "COL",
    "InstitutionAddress": "Scott_Ave._4525_St._Louis_MO_US_63110",
    "InstitutionName": "Washington_University",
    "InstitutionalDepartmentName": "Department",
    "MRAcquisitionType": "2D",
    "MagneticFieldStrength": 3,
    "Manufacturer": "Siemens",
    "ManufacturersModelName": "TrioTim",
    "Modality": "MR",
    "PartialFourier": 1,
    "PatientPosition": "HFS",
    "PercentPhaseFOV": 100,
    "PhaseEncodingDirection": "j-",
    "PhaseEncodingSteps": 64,
    "PhaseResolution": 1,
    "PixelBandwidth": 1905,
    "ProcedureStepDescription": "head_GREENE",
    "ProtocolName": "ep2d_bold_ad_rest",
    "PulseSequenceDetails": "%SiemensSeq%_ep2d_bold",
    "ReceiveCoilName": "HeadMatrix",
    "ReconMatrixPE": 64,
    "RepetitionTime": 2.5,
    "SAR": 0.12745,
    "ScanOptions": "FS",
    "ScanningSequence": "EP",
    "SequenceName": "_epfid2d1_64",
    "SequenceVariant": "SK",
    "SeriesDescription": "ep2d_bold_ad_rest",
    "SeriesNumber": 7,
    "ShimSetting": [
      -189,
      -19533,
      7969,
      269,
      49,
      -564,
      244,
      -70
    ],
    "SliceThickness": 4,
    "SliceTiming": [
      1.255,
      0,
      1.3325,
      0.0775,
      1.41,
      0.155,
      1.49,
      0.235,
      1.5675,
      0.3125,
      1.645,
      0.39,
      1.725,
      0.47,
      1.8025,
      0.5475,
      1.88,
      0.6275,
      1.96,
      0.705,
      2.0375,
      0.7825,
      2.1175,
      0.8625,
      2.195,
      0.94,
      2.2725,
      1.0175,
      2.3525,
      1.0975,
      2.43,
      1.175
    ],
    "SoftwareVersions": "syngo_MR_B17",
    "SpacingBetweenSlices": 4,
    "StationName": "MRC35177",
    "TaskName": "restfixationadaptive",
    "TotalReadoutTime": 0.0371701,
    "TxRefAmp": 335.725,
    "dataset": "ds000256",
    "dcmmeta_affine": [
      [
        -3.987715482711792,
        0.24180446565151215,
        0.1991386115550995,
        120.38082885742188
      ],
      [
        0.25053614377975464,
        3.988348960876465,
        0.17408111691474915,
        -132.5615692138672
      ],
      [
        0.18803516030311584,
        -0.18601933121681213,
        3.9912455081939697,
        -43.6354866027832
      ],
      [
        0.0,
        0.0,
        0.0,
        1.0
      ]
    ],
    "dcmmeta_reorient_transform": [
      [
        0.0,
        -1.0,
        0.0,
        63.0
      ],
      [
        1.0,
        0.0,
        0.0,
        0.0
      ],
      [
        0.0,
        0.0,
        1.0,
        0.0
      ],
      [
        0.0,
        0.0,
        0.0,
        1.0
      ]
    ],
    "dcmmeta_shape": [
      64,
      64,
      32,
      164
    ],
    "dcmmeta_slice_dim": 2,
    "dcmmeta_version": 0.6,
    "global": {
      "const": {
        "AccessionNumber": ".",
        "AcquisitionMatrix": [
          64,
          0,
          0,
          64
        ],
        "AngioFlag": "N",
        "BitsAllocated": 16,
        "BitsStored": 12,
        "BodyPartExamined": "HEAD",
        "Columns": 384,
        "DeidentificationMethodCodeSequence": [
          {
            "CodeMeaning": "XNAT Edit Script",
            "CodeValue": "625500",
            "CodingSchemeDesignator": "XNAT",
            "CodingSchemeVersion": "0.1"
          }
        ],
        "EchoNumbers": 1,
        "EchoTime": 27.0,
        "EchoTrainLength": 1,
        "FlipAngle": 90.0,
        "HighBit": 11,
        "ImageOrientationPatient": [
          0.99692885962054,
          -0.0626340353518,
          0.04700879142514,
          0.06045111524135,
          0.99708723946961,
          0.04650483365136
        ],
        "ImagePositionPatient": [
          -812.33769717403,
          -716.75447070514,
          -115.20342423331
        ],
        "ImageType": [
          "ORIGINAL",
          "PRIMARY",
          "M",
          "ND",
          "NORM",
          "MOSAIC"
        ],
        "ImagedNucleus": "1H",
        "ImagingFrequency": 123.255883,
        "InPlanePhaseEncodingDirection": "COL",
        "MRAcquisitionType": "2D",
        "MagneticFieldStrength": 3.0,
        "Manufacturer": "SIEMENS",
        "ManufacturerModelName": "TrioTim",
        "Modality": "MR",
        "NumberOfAverages": 1.0,
        "NumberOfPhaseEncodingSteps": 64,
        "PercentPhaseFieldOfView": 100.0,
        "PercentSampling": 100.0,
        "PerformedProcedureStepStartTime": "123052.937000",
        "PhotometricInterpretation": "MONOCHROME2",
        "PixelBandwidth": 1905.0,
        "PixelRepresentation": 0,
        "PixelSpacing": [
          4.0,
          4.0
        ],
        "PositionReferenceIndicator": "",
        "ProtocolName": "ep2d_bold_ad_rest",
        "RepetitionTime": 2500.0,
        "Rows": 384,
        "SAR": 0.12745018749552,
        "SamplesPerPixel": 1,
        "ScanOptions": "FS",
        "ScanningSequence": "EP",
        "SequenceName": "*epfid2d1_64",
        "SequenceVariant": "SK",
        "SeriesDescription": "ep2d_bold_ad_rest",
        "SeriesNumber": 7,
        "SeriesTime": "125318.500000",
        "SliceLocation": -43.315981152566,
        "SliceThickness": 4.0,
        "SmallestImagePixelValue": 0,
        "SoftwareVersions": "syngo MR B17",
        "SpacingBetweenSlices": 4.0000001490724,
        "SpecificCharacterSet": "ISO_IR 100",
        "StudyID": "1",
        "StudyTime": "123052.890000",
        "TransmitCoilName": "Body",
        "VariableFlipAngleFlag": "N",
        "WindowCenterWidthExplanation": "Algo1",
        "dBdt": 0.0
      },
      "slices": {}
    },
    "modality": "bold",
    "subject_id": "CTS218",
    "task_id": "restfixationadaptive",
    "time": {
      "samples": {
        "AcquisitionNumber": [
          1,
          2,
          3,
          4,
          5,
          6,
          7,
          8,
          9,
          10,
          11,
          12,
          13,
          14,
          15,
          16,
          17,
          18,
          19,
          20,
          21,
          22,
          23,
          24,
          25,
          26,
          27,
          28,
          29,
          30,
          31,
          32,
          33,
          34,
          35,
          36,
          37,
          38,
          39,
          40,
          41,
          42,
          43,
          44,
          45,
          46,
          47,
          48,
          49,
          50,
          51,
          52,
          53,
          54,
          55,
          56,
          57,
          58,
          59,
          60,
          61,
          62,
          63,
          64,
          65,
          66,
          67,
          68,
          69,
          70,
          71,
          72,
          73,
          74,
          75,
          76,
          77,
          78,
          79,
          80,
          81,
          82,
          83,
          84,
          85,
          86,
          87,
          88,
          89,
          90,
          91,
          92,
          93,
          94,
          95,
          96,
          97,
          98,
          99,
          100,
          101,
          102,
          103,
          104,
          105,
          106,
          107,
          108,
          109,
          110,
          111,
          112,
          113,
          114,
          115,
          116,
          117,
          118,
          119,
          120,
          121,
          122,
          123,
          124,
          125,
          126,
          127,
          128,
          129,
          130,
          131,
          132,
          133,
          134,
          135,
          136,
          137,
          138,
          139,
          140,
          141,
          142,
          143,
          144,
          145,
          146,
          147,
          148,
          149,
          150,
          151,
          152,
          153,
          154,
          155,
          156,
          157,
          158,
          159,
          160,
          161,
          162,
          163,
          164
        ],
        "AcquisitionTime": [
          "125316.260000",
          "125318.770000",
          "125321.280000",
          "125323.790000",
          "125326.300000",
          "125328.810000",
          "125331.320000",
          "125333.830000",
          "125336.340000",
          "125338.850000",
          "125341.360000",
          "125343.870000",
          "125346.380000",
          "125348.890000",
          "125351.400000",
          "125353.910000",
          "125356.420000",
          "125358.930000",
          "125401.440000",
          "125403.950000",
          "125406.460000",
          "125408.970000",
          "125411.480000",
          "125413.990000",
          "125416.500000",
          "125419.010000",
          "125421.520000",
          "125424.030000",
          "125426.540000",
          "125429.050000",
          "125431.560000",
          "125434.070000",
          "125436.580000",
          "125439.090000",
          "125441.600000",
          "125444.110000",
          "125446.620000",
          "125449.130000",
          "125451.640000",
          "125454.150000",
          "125456.660000",
          "125459.170000",
          "125501.680000",
          "125504.190000",
          "125506.700000",
          "125509.210000",
          "125511.720000",
          "125514.230000",
          "125516.740000",
          "125519.250000",
          "125521.760000",
          "125524.270000",
          "125526.780000",
          "125529.290000",
          "125531.800000",
          "125534.310000",
          "125536.820000",
          "125539.330000",
          "125541.840000",
          "125544.350000",
          "125546.860000",
          "125549.372500",
          "125551.882500",
          "125554.392500",
          "125556.902500",
          "125559.412500",
          "125601.922500",
          "125604.432500",
          "125606.942500",
          "125609.452500",
          "125611.962500",
          "125614.472500",
          "125616.982500",
          "125619.492500",
          "125622.002500",
          "125624.512500",
          "125627.022500",
          "125629.532500",
          "125632.042500",
          "125634.552500",
          "125637.062500",
          "125639.572500",
          "125642.082500",
          "125644.592500",
          "125647.102500",
          "125649.612500",
          "125652.122500",
          "125654.632500",
          "125657.142500",
          "125659.652500",
          "125702.162500",
          "125704.672500",
          "125707.182500",
          "125709.692500",
          "125712.202500",
          "125714.712500",
          "125717.222500",
          "125719.732500",
          "125722.242500",
          "125724.752500",
          "125727.262500",
          "125729.772500",
          "125732.282500",
          "125734.792500",
          "125737.302500",
          "125739.812500",
          "125742.322500",
          "125744.832500",
          "125747.342500",
          "125749.852500",
          "125752.362500",
          "125754.872500",
          "125757.382500",
          "125759.892500",
          "125802.402500",
          "125804.912500",
          "125807.422500",
          "125809.932500",
          "125812.442500",
          "125814.952500",
          "125817.462500",
          "125819.972500",
          "125822.482500",
          "125824.995000",
          "125827.505000",
          "125830.015000",
          "125832.525000",
          "125835.035000",
          "125837.545000",
          "125840.055000",
          "125842.565000",
          "125845.075000",
          "125847.585000",
          "125850.095000",
          "125852.605000",
          "125855.115000",
          "125857.625000",
          "125900.135000",
          "125902.645000",
          "125905.155000",
          "125907.665000",
          "125910.175000",
          "125912.685000",
          "125915.195000",
          "125917.705000",
          "125920.215000",
          "125922.725000",
          "125925.235000",
          "125927.745000",
          "125930.255000",
          "125932.765000",
          "125935.275000",
          "125937.785000",
          "125940.295000",
          "125942.805000",
          "125945.315000",
          "125947.825000",
          "125950.335000",
          "125952.845000",
          "125955.355000",
          "125957.865000",
          "130000.375000",
          "130002.885000",
          "130005.395000"
        ],
        "ContentTime": [
          "125318.500000",
          "125321.000000",
          "125323.500000",
          "125326.000000",
          "125328.500000",
          "125331.000000",
          "125333.500000",
          "125336.000000",
          "125338.500000",
          "125341.000000",
          "125343.500000",
          "125346.000000",
          "125348.500000",
          "125351.000000",
          "125353.500000",
          "125356.000000",
          "125358.500000",
          "125401.000000",
          "125403.500000",
          "125406.000000",
          "125408.500000",
          "125411.000000",
          "125413.500000",
          "125416.000000",
          "125418.500000",
          "125421.000000",
          "125423.500000",
          "125426.000000",
          "125428.500000",
          "125431.000000",
          "125433.500000",
          "125436.000000",
          "125438.500000",
          "125441.000000",
          "125443.500000",
          "125446.000000",
          "125448.500000",
          "125451.000000",
          "125453.500000",
          "125456.000000",
          "125458.500000",
          "125501.000000",
          "125503.500000",
          "125506.000000",
          "125508.500000",
          "125511.000000",
          "125513.500000",
          "125516.000000",
          "125518.500000",
          "125521.000000",
          "125523.500000",
          "125526.000000",
          "125528.500000",
          "125531.000000",
          "125533.500000",
          "125536.000000",
          "125538.500000",
          "125541.000000",
          "125543.500000",
          "125546.000000",
          "125548.500000",
          "125551.000000",
          "125553.500000",
          "125556.000000",
          "125558.500000",
          "125601.000000",
          "125603.500000",
          "125606.000000",
          "125608.500000",
          "125611.000000",
          "125613.500000",
          "125616.000000",
          "125618.500000",
          "125621.000000",
          "125623.500000",
          "125626.000000",
          "125628.500000",
          "125631.000000",
          "125633.500000",
          "125636.000000",
          "125638.500000",
          "125641.000000",
          "125643.500000",
          "125646.000000",
          "125648.500000",
          "125651.000000",
          "125653.500000",
          "125656.000000",
          "125658.500000",
          "125701.000000",
          "125703.500000",
          "125706.000000",
          "125708.500000",
          "125711.000000",
          "125713.500000",
          "125716.000000",
          "125718.500000",
          "125721.000000",
          "125723.500000",
          "125726.000000",
          "125728.500000",
          "125731.000000",
          "125733.500000",
          "125736.000000",
          "125738.500000",
          "125741.000000",
          "125743.500000",
          "125746.000000",
          "125748.500000",
          "125751.000000",
          "125753.500000",
          "125756.000000",
          "125758.500000",
          "125801.000000",
          "125803.500000",
          "125806.000000",
          "125808.500000",
          "125811.000000",
          "125813.500000",
          "125816.000000",
          "125818.500000",
          "125821.000000",
          "125823.500000",
          "125826.000000",
          "125828.500000",
          "125831.000000",
          "125833.500000",
          "125836.000000",
          "125838.500000",
          "125841.000000",
          "125843.500000",
          "125846.000000",
          "125848.500000",
          "125851.000000",
          "125853.500000",
          "125856.000000",
          "125858.500000",
          "125901.000000",
          "125903.500000",
          "125906.000000",
          "125908.500000",
          "125911.000000",
          "125913.500000",
          "125916.000000",
          "125918.500000",
          "125921.000000",
          "125923.500000",
          "125926.000000",
          "125928.500000",
          "125931.000000",
          "125933.500000",
          "125936.000000",
          "125938.500000",
          "125941.000000",
          "125943.500000",
          "125946.000000",
          "125948.500000",
          "125951.000000",
          "125953.500000",
          "125956.000000",
          "125958.500000",
          "130001.000000",
          "130003.500000",
          "130005.828000"
        ],
        "InstanceCreationTime": [
          "125318.500000",
          "125321.000000",
          "125323.500000",
          "125326.000000",
          "125328.500000",
          "125331.000000",
          "125333.500000",
          "125336.000000",
          "125338.500000",
          "125341.000000",
          "125343.500000",
          "125346.000000",
          "125348.500000",
          "125351.000000",
          "125353.500000",
          "125356.000000",
          "125358.500000",
          "125401.000000",
          "125403.500000",
          "125406.000000",
          "125408.500000",
          "125411.000000",
          "125413.500000",
          "125416.000000",
          "125418.500000",
          "125421.000000",
          "125423.500000",
          "125426.000000",
          "125428.500000",
          "125431.000000",
          "125433.500000",
          "125436.000000",
          "125438.500000",
          "125441.000000",
          "125443.500000",
          "125446.000000",
          "125448.500000",
          "125451.000000",
          "125453.500000",
          "125456.000000",
          "125458.500000",
          "125501.000000",
          "125503.500000",
          "125506.000000",
          "125508.500000",
          "125511.000000",
          "125513.500000",
          "125516.000000",
          "125518.500000",
          "125521.000000",
          "125523.500000",
          "125526.000000",
          "125528.500000",
          "125531.000000",
          "125533.500000",
          "125536.000000",
          "125538.500000",
          "125541.000000",
          "125543.500000",
          "125546.000000",
          "125548.500000",
          "125551.000000",
          "125553.500000",
          "125556.000000",
          "125558.500000",
          "125601.000000",
          "125603.500000",
          "125606.000000",
          "125608.500000",
          "125611.000000",
          "125613.500000",
          "125616.000000",
          "125618.500000",
          "125621.000000",
          "125623.500000",
          "125626.000000",
          "125628.500000",
          "125631.000000",
          "125633.500000",
          "125636.000000",
          "125638.500000",
          "125641.000000",
          "125643.500000",
          "125646.000000",
          "125648.500000",
          "125651.000000",
          "125653.500000",
          "125656.000000",
          "125658.500000",
          "125701.000000",
          "125703.500000",
          "125706.000000",
          "125708.500000",
          "125711.000000",
          "125713.500000",
          "125716.000000",
          "125718.500000",
          "125721.000000",
          "125723.500000",
          "125726.000000",
          "125728.500000",
          "125731.000000",
          "125733.500000",
          "125736.000000",
          "125738.500000",
          "125741.000000",
          "125743.500000",
          "125746.000000",
          "125748.500000",
          "125751.000000",
          "125753.500000",
          "125756.000000",
          "125758.500000",
          "125801.000000",
          "125803.500000",
          "125806.000000",
          "125808.500000",
          "125811.000000",
          "125813.500000",
          "125816.000000",
          "125818.500000",
          "125821.000000",
          "125823.500000",
          "125826.000000",
          "125828.500000",
          "125831.000000",
          "125833.500000",
          "125836.000000",
          "125838.500000",
          "125841.000000",
          "125843.500000",
          "125846.000000",
          "125848.500000",
          "125851.000000",
          "125853.500000",
          "125856.000000",
          "125858.500000",
          "125901.000000",
          "125903.500000",
          "125906.000000",
          "125908.500000",
          "125911.000000",
          "125913.500000",
          "125916.000000",
          "125918.500000",
          "125921.000000",
          "125923.500000",
          "125926.000000",
          "125928.500000",
          "125931.000000",
          "125933.500000",
          "125936.000000",
          "125938.500000",
          "125941.000000",
          "125943.500000",
          "125946.000000",
          "125948.500000",
          "125951.000000",
          "125953.500000",
          "125956.000000",
          "125958.500000",
          "130001.000000",
          "130003.500000",
          "130005.828000"
        ],
        "InstanceNumber": [
          1,
          2,
          3,
          4,
          5,
          6,
          7,
          8,
          9,
          10,
          11,
          12,
          13,
          14,
          15,
          16,
          17,
          18,
          19,
          20,
          21,
          22,
          23,
          24,
          25,
          26,
          27,
          28,
          29,
          30,
          31,
          32,
          33,
          34,
          35,
          36,
          37,
          38,
          39,
          40,
          41,
          42,
          43,
          44,
          45,
          46,
          47,
          48,
          49,
          50,
          51,
          52,
          53,
          54,
          55,
          56,
          57,
          58,
          59,
          60,
          61,
          62,
          63,
          64,
          65,
          66,
          67,
          68,
          69,
          70,
          71,
          72,
          73,
          74,
          75,
          76,
          77,
          78,
          79,
          80,
          81,
          82,
          83,
          84,
          85,
          86,
          87,
          88,
          89,
          90,
          91,
          92,
          93,
          94,
          95,
          96,
          97,
          98,
          99,
          100,
          101,
          102,
          103,
          104,
          105,
          106,
          107,
          108,
          109,
          110,
          111,
          112,
          113,
          114,
          115,
          116,
          117,
          118,
          119,
          120,
          121,
          122,
          123,
          124,
          125,
          126,
          127,
          128,
          129,
          130,
          131,
          132,
          133,
          134,
          135,
          136,
          137,
          138,
          139,
          140,
          141,
          142,
          143,
          144,
          145,
          146,
          147,
          148,
          149,
          150,
          151,
          152,
          153,
          154,
          155,
          156,
          157,
          158,
          159,
          160,
          161,
          162,
          163,
          164
        ],
        "LargestImagePixelValue": [
          1428,
          1457,
          1706,
          1501,
          1581,
          1584,
          1636,
          1535,
          1617,
          1452,
          1558,
          1492,
          1412,
          1637,
          1511,
          1370,
          1375,
          1667,
          1557,
          1463,
          1462,
          1377,
          1585,
          1458,
          1635,
          1401,
          1366,
          1544,
          1429,
          1475,
          1474,
          1365,
          1559,
          1515,
          1548,
          1548,
          1517,
          1392,
          1541,
          1399,
          1400,
          1532,
          1521,
          1662,
          1600,
          1656,
          1411,
          1695,
          1387,
          1388,
          1597,
          1484,
          1424,
          1433,
          1448,
          1969,
          1903,
          1683,
          1445,
          1448,
          1436,
          1444,
          1461,
          1535,
          1436,
          1445,
          1454,
          1789,
          1593,
          1490,
          1444,
          1562,
          1428,
          1443,
          1446,
          1517,
          1525,
          1550,
          1631,
          1653,
          1755,
          1562,
          1461,
          1469,
          1662,
          1495,
          1438,
          1428,
          1482,
          1428,
          1565,
          1514,
          1492,
          1667,
          1639,
          1578,
          1606,
          1417,
          1745,
          1579,
          1598,
          1627,
          1424,
          1533,
          1424,
          1608,
          1491,
          1420,
          1548,
          1478,
          1499,
          1585,
          1774,
          1598,
          1769,
          1507,
          1424,
          1456,
          1747,
          1686,
          1669,
          1645,
          1462,
          1618,
          1714,
          1649,
          1524,
          1459,
          1461,
          1481,
          1556,
          1465,
          1482,
          1478,
          1884,
          1675,
          1459,
          1492,
          1414,
          1446,
          1443,
          1577,
          1525,
          1426,
          1418,
          1426,
          1418,
          1494,
          1628,
          1436,
          1618,
          1515,
          1437,
          1521,
          1535,
          1451,
          1433,
          1417,
          1595,
          1416,
          1418,
          1661,
          1398,
          1632
        ],
        "WindowCenter": [
          641.0,
          640.0,
          640.0,
          639.0,
          639.0,
          639.0,
          639.0,
          637.0,
          639.0,
          638.0,
          639.0,
          639.0,
          640.0,
          640.0,
          639.0,
          638.0,
          639.0,
          639.0,
          639.0,
          639.0,
          639.0,
          640.0,
          640.0,
          639.0,
          641.0,
          639.0,
          640.0,
          640.0,
          640.0,
          641.0,
          640.0,
          640.0,
          640.0,
          641.0,
          640.0,
          640.0,
          639.0,
          639.0,
          639.0,
          640.0,
          639.0,
          641.0,
          641.0,
          641.0,
          641.0,
          642.0,
          641.0,
          641.0,
          640.0,
          640.0,
          641.0,
          642.0,
          637.0,
          642.0,
          641.0,
          636.0,
          643.0,
          640.0,
          641.0,
          642.0,
          643.0,
          643.0,
          645.0,
          644.0,
          639.0,
          647.0,
          645.0,
          645.0,
          645.0,
          649.0,
          648.0,
          646.0,
          644.0,
          645.0,
          645.0,
          646.0,
          645.0,
          646.0,
          648.0,
          644.0,
          643.0,
          643.0,
          637.0,
          645.0,
          645.0,
          644.0,
          643.0,
          643.0,
          645.0,
          645.0,
          646.0,
          644.0,
          645.0,
          646.0,
          645.0,
          646.0,
          645.0,
          643.0,
          645.0,
          645.0,
          645.0,
          644.0,
          644.0,
          644.0,
          645.0,
          645.0,
          645.0,
          645.0,
          646.0,
          645.0,
          644.0,
          644.0,
          645.0,
          644.0,
          644.0,
          644.0,
          646.0,
          645.0,
          646.0,
          646.0,
          646.0,
          645.0,
          644.0,
          645.0,
          646.0,
          646.0,
          646.0,
          644.0,
          646.0,
          645.0,
          645.0,
          646.0,
          645.0,
          645.0,
          646.0,
          642.0,
          642.0,
          644.0,
          641.0,
          646.0,
          642.0,
          649.0,
          640.0,
          643.0,
          644.0,
          644.0,
          644.0,
          644.0,
          646.0,
          644.0,
