{
  "aor": 0.013471524390243902,
  "aqi": 0.013016424268292684,
  "bids_meta": {
    "AcquisitionMatrixPE": 64,
    "AcquisitionNumber": 1,
    "AcquisitionTime": "13:09:50.120000",
    "BandwidthPerPixelPhaseEncode": 26.483,
    "BaseResolution": 64,
    "BodyPartExamined": "HEAD",
    "CogAtlasID": "TODO",
    "ConversionSoftware": "dcm2niix",
    "ConversionSoftwareVersion": "v1.0.20171017 GCC6.3.0",
    "DerivedVendorReportedEchoSpacing": 0.000590001,
    "DeviceSerialNumber": "35177",
    "DwellTime": 4.1e-06,
    "EchoTime": 0.027,
    "EffectiveEchoSpacing": 0.000590001,
    "FlipAngle": 90,
    "ImageOrientationPatientDICOM": [
      0.996929,
      -0.062634,
      0.0470088,
      0.0604511,
      0.997087,
      0.0465048
    ],
    "ImageType": [
      "ORIGINAL",
      "PRIMARY",
      "M",
      "ND",
      "NORM",
      "MOSAIC"
    ],
    "InPlanePhaseEncodingDirectionDICOM": "COL",
    "InstitutionAddress": "Scott_Ave._4525_St._Louis_MO_US_63110",
    "InstitutionName": "Washington_University",
    "InstitutionalDepartmentName": "Department",
    "MRAcquisitionType": "2D",
    "MagneticFieldStrength": 3,
    "Manufacturer": "Siemens",
    "ManufacturersModelName": "TrioTim",
    "Modality": "MR",
    "PartialFourier": 1,
    "PatientPosition": "HFS",
    "PercentPhaseFOV": 100,
    "PhaseEncodingDirection": "j-",
    "PhaseEncodingSteps": 64,
    "PhaseResolution": 1,
    "PixelBandwidth": 1905,
    "ProcedureStepDescription": "head_GREENE",
    "ProtocolName": "ep2d_bold_nonad_movie_2A",
    "PulseSequenceDetails": "%SiemensSeq%_ep2d_bold",
    "ReceiveCoilName": "HeadMatrix",
    "ReconMatrixPE": 64,
    "RepetitionTime": 2.5,
    "SAR": 0.12745,
    "ScanOptions": "FS",
    "ScanningSequence": "EP",
    "SequenceName": "_epfid2d1_64",
    "SequenceVariant": "SK",
    "SeriesDescription": "ep2d_bold_nonad_movie_2A",
    "SeriesNumber": 9,
    "ShimSetting": [
      -189,
      -19533,
      7969,
      269,
      49,
      -564,
      244,
      -70
    ],
    "SliceThickness": 4,
    "SliceTiming": [
      1.255,
      0,
      1.3325,
      0.0775,
      1.41,
      0.155,
      1.49,
      0.235,
      1.5675,
      0.3125,
      1.645,
      0.39,
      1.725,
      0.47,
      1.8025,
      0.5475,
      1.88,
      0.6275,
      1.96,
      0.705,
      2.0375,
      0.7825,
      2.1175,
      0.8625,
      2.195,
      0.94,
      2.2725,
      1.0175,
      2.3525,
      1.0975,
      2.43,
      1.175
    ],
    "SoftwareVersions": "syngo_MR_B17",
    "SpacingBetweenSlices": 4,
    "StationName": "MRC35177",
    "TaskName": "restmoviefixed",
    "TotalReadoutTime": 0.0371701,
    "TxRefAmp": 335.725,
    "dataset": "ds000256",
    "dcmmeta_affine": [
      [
        -3.987715482711792,
        0.24180446565151215,
        0.1991386115550995,
        120.38082885742188
      ],
      [
        0.25053614377975464,
        3.988348960876465,
        0.17408111691474915,
        -132.5615692138672
      ],
      [
        0.18803516030311584,
        -0.18601933121681213,
        3.9912455081939697,
        -43.6354866027832
      ],
      [
        0.0,
        0.0,
        0.0,
        1.0
      ]
    ],
    "dcmmeta_reorient_transform": [
      [
        0.0,
        -1.0,
        0.0,
        63.0
      ],
      [
        1.0,
        0.0,
        0.0,
        0.0
      ],
      [
        0.0,
        0.0,
        1.0,
        0.0
      ],
      [
        0.0,
        0.0,
        0.0,
        1.0
      ]
    ],
    "dcmmeta_shape": [
      64,
      64,
      32,
      164
    ],
    "dcmmeta_slice_dim": 2,
    "dcmmeta_version": 0.6,
    "global": {
      "const": {
        "AccessionNumber": ".",
        "AcquisitionMatrix": [
          64,
          0,
          0,
          64
        ],
        "AngioFlag": "N",
        "BitsAllocated": 16,
        "BitsStored": 12,
        "BodyPartExamined": "HEAD",
        "Columns": 384,
        "DeidentificationMethodCodeSequence": [
          {
            "CodeMeaning": "XNAT Edit Script",
            "CodeValue": "625500",
            "CodingSchemeDesignator": "XNAT",
            "CodingSchemeVersion": "0.1"
          }
        ],
        "EchoNumbers": 1,
        "EchoTime": 27.0,
        "EchoTrainLength": 1,
        "FlipAngle": 90.0,
        "HighBit": 11,
        "ImageOrientationPatient": [
          0.99692885962054,
          -0.0626340353518,
          0.04700879142514,
          0.06045111524135,
          0.99708723946961,
          0.04650483365136
        ],
        "ImagePositionPatient": [
          -812.33769717403,
          -716.75447070514,
          -115.20342423331
        ],
        "ImageType": [
          "ORIGINAL",
          "PRIMARY",
          "M",
          "ND",
          "NORM",
          "MOSAIC"
        ],
        "ImagedNucleus": "1H",
        "ImagingFrequency": 123.255888,
        "InPlanePhaseEncodingDirection": "COL",
        "MRAcquisitionType": "2D",
        "MagneticFieldStrength": 3.0,
        "Manufacturer": "SIEMENS",
        "ManufacturerModelName": "TrioTim",
        "Modality": "MR",
        "NumberOfAverages": 1.0,
        "NumberOfPhaseEncodingSteps": 64,
        "PercentPhaseFieldOfView": 100.0,
        "PercentSampling": 100.0,
        "PerformedProcedureStepStartTime": "123052.937000",
        "PhotometricInterpretation": "MONOCHROME2",
        "PixelBandwidth": 1905.0,
        "PixelRepresentation": 0,
        "PixelSpacing": [
          4.0,
          4.0
        ],
        "PositionReferenceIndicator": "",
        "ProtocolName": "ep2d_bold_nonad_movie_2A",
        "RepetitionTime": 2500.0,
        "Rows": 384,
        "SAR": 0.12745018749552,
        "SamplesPerPixel": 1,
        "ScanOptions": "FS",
        "ScanningSequence": "EP",
        "SequenceName": "*epfid2d1_64",
        "SequenceVariant": "SK",
        "SeriesDescription": "ep2d_bold_nonad_movie_2A",
        "SeriesNumber": 9,
        "SeriesTime": "130952.468000",
        "SliceLocation": -43.315981152566,
        "SliceThickness": 4.0,
        "SmallestImagePixelValue": 0,
        "SoftwareVersions": "syngo MR B17",
        "SpacingBetweenSlices": 4.0000001490724,
        "SpecificCharacterSet": "ISO_IR 100",
        "StudyID": "1",
        "StudyTime": "123052.890000",
        "TransmitCoilName": "Body",
        "VariableFlipAngleFlag": "N",
        "WindowCenterWidthExplanation": "Algo1",
        "dBdt": 0.0
      },
      "slices": {}
    },
    "modality": "bold",
    "subject_id": "CTS218",
    "task_id": "restmoviefixed",
    "time": {
      "samples": {
        "AcquisitionNumber": [
          1,
          2,
          3,
          4,
          5,
          6,
          7,
          8,
          9,
          10,
          11,
          12,
          13,
          14,
          15,
          16,
          17,
          18,
          19,
          20,
          21,
          22,
          23,
          24,
          25,
          26,
          27,
          28,
          29,
          30,
          31,
          32,
          33,
          34,
          35,
          36,
          37,
          38,
          39,
          40,
          41,
          42,
          43,
          44,
          45,
          46,
          47,
          48,
          49,
          50,
          51,
          52,
          53,
          54,
          55,
          56,
          57,
          58,
          59,
          60,
          61,
          62,
          63,
          64,
          65,
          66,
          67,
          68,
          69,
          70,
          71,
          72,
          73,
          74,
          75,
          76,
          77,
          78,
          79,
          80,
          81,
          82,
          83,
          84,
          85,
          86,
          87,
          88,
          89,
          90,
          91,
          92,
          93,
          94,
          95,
          96,
          97,
          98,
          99,
          100,
          101,
          102,
          103,
          104,
          105,
          106,
          107,
          108,
          109,
          110,
          111,
          112,
          113,
          114,
          115,
          116,
          117,
          118,
          119,
          120,
          121,
          122,
          123,
          124,
          125,
          126,
          127,
          128,
          129,
          130,
          131,
          132,
          133,
          134,
          135,
          136,
          137,
          138,
          139,
          140,
          141,
          142,
          143,
          144,
          145,
          146,
          147,
          148,
          149,
          150,
          151,
          152,
          153,
          154,
          155,
          156,
          157,
          158,
          159,
          160,
          161,
          162,
          163,
          164
        ],
        "AcquisitionTime": [
          "130950.120000",
          "130952.630000",
          "130955.140000",
          "130957.650000",
          "131000.160000",
          "131002.670000",
          "131005.180000",
          "131007.690000",
          "131010.200000",
          "131012.710000",
          "131015.220000",
          "131017.730000",
          "131020.240000",
          "131022.750000",
          "131025.260000",
          "131027.770000",
          "131030.280000",
          "131032.790000",
          "131035.300000",
          "131037.810000",
          "131040.320000",
          "131042.830000",
          "131045.340000",
          "131047.850000",
          "131050.360000",
          "131052.870000",
          "131055.380000",
          "131057.890000",
          "131100.400000",
          "131102.910000",
          "131105.420000",
          "131107.930000",
          "131110.440000",
          "131112.950000",
          "131115.460000",
          "131117.970000",
          "131120.480000",
          "131122.990000",
          "131125.500000",
          "131128.010000",
          "131130.520000",
          "131133.030000",
          "131135.540000",
          "131138.050000",
          "131140.560000",
          "131143.070000",
          "131145.580000",
          "131148.090000",
          "131150.600000",
          "131153.110000",
          "131155.620000",
          "131158.130000",
          "131200.640000",
          "131203.150000",
          "131205.660000",
          "131208.170000",
          "131210.680000",
          "131213.190000",
          "131215.700000",
          "131218.210000",
          "131220.722500",
          "131223.232500",
          "131225.742500",
          "131228.252500",
          "131230.762500",
          "131233.272500",
          "131235.782500",
          "131238.292500",
          "131240.802500",
          "131243.312500",
          "131245.822500",
          "131248.332500",
          "131250.842500",
          "131253.352500",
          "131255.862500",
          "131258.372500",
          "131300.882500",
          "131303.392500",
          "131305.902500",
          "131308.412500",
          "131310.922500",
          "131313.432500",
          "131315.942500",
          "131318.452500",
          "131320.962500",
          "131323.472500",
          "131325.982500",
          "131328.492500",
          "131331.002500",
          "131333.512500",
          "131336.022500",
          "131338.532500",
          "131341.042500",
          "131343.552500",
          "131346.062500",
          "131348.572500",
          "131351.082500",
          "131353.592500",
          "131356.102500",
          "131358.612500",
          "131401.122500",
          "131403.632500",
          "131406.142500",
          "131408.652500",
          "131411.162500",
          "131413.672500",
          "131416.182500",
          "131418.692500",
          "131421.202500",
          "131423.712500",
          "131426.222500",
          "131428.732500",
          "131431.242500",
          "131433.752500",
          "131436.262500",
          "131438.772500",
          "131441.282500",
          "131443.792500",
          "131446.302500",
          "131448.812500",
          "131451.322500",
          "131453.832500",
          "131456.342500",
          "131458.855000",
          "131501.365000",
          "131503.875000",
          "131506.385000",
          "131508.895000",
          "131511.405000",
          "131513.915000",
          "131516.425000",
          "131518.935000",
          "131521.445000",
          "131523.955000",
          "131526.465000",
          "131528.975000",
          "131531.485000",
          "131533.995000",
          "131536.505000",
          "131539.015000",
          "131541.525000",
          "131544.035000",
          "131546.545000",
          "131549.055000",
          "131551.565000",
          "131554.075000",
          "131556.585000",
          "131559.095000",
          "131601.605000",
          "131604.115000",
          "131606.625000",
          "131609.135000",
          "131611.645000",
          "131614.155000",
          "131616.665000",
          "131619.175000",
          "131621.685000",
          "131624.195000",
          "131626.705000",
          "131629.215000",
          "131631.725000",
          "131634.235000",
          "131636.745000",
          "131639.255000"
        ],
        "ContentTime": [
          "130952.468000",
          "130954.968000",
          "130957.468000",
          "130959.968000",
          "131002.468000",
          "131004.968000",
          "131007.468000",
          "131009.968000",
          "131012.468000",
          "131014.968000",
          "131017.468000",
          "131019.968000",
          "131022.468000",
          "131024.968000",
          "131027.468000",
          "131029.968000",
          "131032.468000",
          "131034.968000",
          "131037.468000",
          "131039.968000",
          "131042.468000",
          "131044.968000",
          "131047.468000",
          "131049.968000",
          "131052.468000",
          "131054.968000",
          "131057.468000",
          "131059.968000",
          "131102.468000",
          "131104.968000",
          "131107.468000",
          "131109.968000",
          "131112.468000",
          "131114.968000",
          "131117.468000",
          "131119.968000",
          "131122.468000",
          "131124.968000",
          "131127.468000",
          "131129.968000",
          "131132.468000",
          "131134.968000",
          "131137.468000",
          "131139.968000",
          "131142.468000",
          "131144.968000",
          "131147.468000",
          "131149.968000",
          "131152.468000",
          "131154.968000",
          "131157.468000",
          "131159.968000",
          "131202.468000",
          "131204.968000",
          "131207.468000",
          "131209.968000",
          "131212.468000",
          "131214.968000",
          "131217.468000",
          "131219.968000",
          "131222.468000",
          "131224.968000",
          "131227.468000",
          "131229.968000",
          "131232.468000",
          "131234.968000",
          "131237.468000",
          "131239.968000",
          "131242.468000",
          "131244.968000",
          "131247.468000",
          "131249.968000",
          "131252.468000",
          "131254.968000",
          "131257.468000",
          "131259.968000",
          "131302.468000",
          "131304.968000",
          "131307.468000",
          "131309.968000",
          "131312.468000",
          "131314.968000",
          "131317.468000",
          "131319.968000",
          "131322.468000",
          "131324.968000",
          "131327.468000",
          "131329.968000",
          "131332.468000",
          "131334.968000",
          "131337.468000",
          "131339.968000",
          "131342.468000",
          "131344.968000",
          "131347.468000",
          "131349.968000",
          "131352.468000",
          "131354.968000",
          "131357.468000",
          "131359.968000",
          "131402.468000",
          "131404.968000",
          "131407.468000",
          "131409.968000",
          "131412.468000",
          "131414.968000",
          "131417.468000",
          "131419.968000",
          "131422.468000",
          "131424.968000",
          "131427.468000",
          "131429.968000",
          "131432.468000",
          "131434.968000",
          "131437.468000",
          "131439.968000",
          "131442.468000",
          "131444.968000",
          "131447.468000",
          "131449.968000",
          "131452.468000",
          "131454.968000",
          "131457.468000",
          "131459.968000",
          "131502.468000",
          "131504.968000",
          "131507.468000",
          "131509.968000",
          "131512.468000",
          "131514.968000",
          "131517.468000",
          "131519.968000",
          "131522.468000",
          "131524.968000",
          "131527.468000",
          "131529.968000",
          "131532.468000",
          "131534.968000",
          "131537.468000",
          "131539.968000",
          "131542.468000",
          "131544.968000",
          "131547.468000",
          "131549.968000",
          "131552.468000",
          "131554.968000",
          "131557.468000",
          "131559.968000",
          "131602.468000",
          "131604.968000",
          "131607.468000",
          "131609.968000",
          "131612.468000",
          "131614.968000",
          "131617.468000",
          "131619.968000",
          "131622.468000",
          "131624.968000",
          "131627.468000",
          "131629.968000",
          "131632.468000",
          "131634.968000",
          "131637.468000",
          "131639.671000"
        ],
        "InstanceCreationTime": [
          "130952.468000",
          "130954.968000",
          "130957.468000",
          "130959.968000",
          "131002.468000",
          "131004.968000",
          "131007.468000",
          "131009.968000",
          "131012.468000",
          "131014.968000",
          "131017.468000",
          "131019.968000",
          "131022.468000",
          "131024.968000",
          "131027.468000",
          "131029.968000",
          "131032.468000",
          "131034.968000",
          "131037.468000",
          "131039.968000",
          "131042.468000",
          "131044.968000",
          "131047.468000",
          "131049.968000",
          "131052.468000",
          "131054.968000",
          "131057.468000",
          "131059.968000",
          "131102.468000",
          "131104.968000",
          "131107.468000",
          "131109.968000",
          "131112.468000",
          "131114.968000",
          "131117.468000",
          "131119.968000",
          "131122.468000",
          "131124.968000",
          "131127.468000",
          "131129.968000",
          "131132.468000",
          "131134.968000",
          "131137.468000",
          "131139.968000",
          "131142.468000",
          "131144.968000",
          "131147.468000",
          "131149.968000",
          "131152.468000",
          "131154.968000",
          "131157.468000",
          "131159.968000",
          "131202.468000",
          "131204.968000",
          "131207.468000",
          "131209.968000",
          "131212.468000",
          "131214.968000",
          "131217.468000",
          "131219.968000",
          "131222.468000",
          "131224.968000",
          "131227.468000",
          "131229.968000",
          "131232.468000",
          "131234.968000",
          "131237.468000",
          "131239.968000",
          "131242.468000",
          "131244.968000",
          "131247.468000",
          "131249.968000",
          "131252.468000",
          "131254.968000",
          "131257.468000",
          "131259.968000",
          "131302.468000",
          "131304.968000",
          "131307.468000",
          "131309.968000",
          "131312.468000",
          "131314.968000",
          "131317.468000",
          "131319.968000",
          "131322.468000",
          "131324.968000",
          "131327.468000",
          "131329.968000",
          "131332.468000",
          "131334.968000",
          "131337.468000",
          "131339.968000",
          "131342.468000",
          "131344.968000",
          "131347.468000",
          "131349.968000",
          "131352.468000",
          "131354.968000",
          "131357.468000",
          "131359.968000",
          "131402.468000",
          "131404.968000",
          "131407.468000",
          "131409.968000",
          "131412.468000",
          "131414.968000",
          "131417.468000",
          "131419.968000",
          "131422.468000",
          "131424.968000",
          "131427.468000",
          "131429.968000",
          "131432.468000",
          "131434.968000",
          "131437.468000",
          "131439.968000",
          "131442.468000",
          "131444.968000",
          "131447.468000",
          "131449.968000",
          "131452.468000",
          "131454.968000",
          "131457.468000",
          "131459.968000",
          "131502.468000",
          "131504.968000",
          "131507.468000",
          "131509.968000",
          "131512.468000",
          "131514.968000",
          "131517.468000",
          "131519.968000",
          "131522.468000",
          "131524.968000",
          "131527.468000",
          "131529.968000",
          "131532.468000",
          "131534.968000",
          "131537.468000",
          "131539.968000",
          "131542.468000",
          "131544.968000",
          "131547.468000",
          "131549.968000",
          "131552.468000",
          "131554.968000",
          "131557.468000",
          "131559.968000",
          "131602.468000",
          "131604.968000",
          "131607.468000",
          "131609.968000",
          "131612.468000",
          "131614.968000",
          "131617.468000",
          "131619.968000",
          "131622.468000",
          "131624.968000",
          "131627.468000",
          "131629.968000",
          "131632.468000",
          "131634.968000",
          "131637.468000",
          "131639.671000"
        ],
        "InstanceNumber": [
          1,
          2,
          3,
          4,
          5,
          6,
          7,
          8,
          9,
          10,
          11,
          12,
          13,
          14,
          15,
          16,
          17,
          18,
          19,
          20,
          21,
          22,
          23,
          24,
          25,
          26,
          27,
          28,
          29,
          30,
          31,
          32,
          33,
          34,
          35,
          36,
          37,
          38,
          39,
          40,
          41,
          42,
          43,
          44,
          45,
          46,
          47,
          48,
          49,
          50,
          51,
          52,
          53,
          54,
          55,
          56,
          57,
          58,
          59,
          60,
          61,
          62,
          63,
          64,
          65,
          66,
          67,
          68,
          69,
          70,
          71,
          72,
          73,
          74,
          75,
          76,
          77,
          78,
          79,
          80,
          81,
          82,
          83,
          84,
          85,
          86,
          87,
          88,
          89,
          90,
          91,
          92,
          93,
          94,
          95,
          96,
          97,
          98,
          99,
          100,
          101,
          102,
          103,
          104,
          105,
          106,
          107,
          108,
          109,
          110,
          111,
          112,
          113,
          114,
          115,
          116,
          117,
          118,
          119,
          120,
          121,
          122,
          123,
          124,
          125,
          126,
          127,
          128,
          129,
          130,
          131,
          132,
          133,
          134,
          135,
          136,
          137,
          138,
          139,
          140,
          141,
          142,
          143,
          144,
          145,
          146,
          147,
          148,
          149,
          150,
          151,
          152,
          153,
          154,
          155,
          156,
          157,
          158,
          159,
          160,
          161,
          162,
          163,
          164
        ],
        "LargestImagePixelValue": [
          1397,
          1411,
          1403,
          1431,
          1408,
          1438,
          1402,
          1665,
          1455,
          1452,
          1515,
          1472,
          1588,
          1428,
          1600,
          1433,
          1489,
          1429,
          1447,
          1465,
          1624,
          1427,
          1439,
          1418,
          1622,
          1447,
          1486,
          1441,
          1429,
          1437,
          1499,
          1426,
          1423,
          1429,
          1399,
          1444,
          1434,
          1436,
          1554,
          1454,
          1484,
          1448,
          1507,
          1430,
          1429,
          1416,
          1453,
          1480,
          1627,
          1444,
          1447,
          1421,
          1457,
          1464,
          1494,
          1566,
          1617,
          1436,
          1495,
          1399,
          1447,
          1478,
          1406,
          1413,
          1431,
          1523,
          1509,
          1449,
          1440,
          1436,
          1491,
          1397,
          1605,
          1406,
          1425,
          1401,
          1407,
          1626,
          1543,
          1722,
          1377,
          1550,
          1400,
          1402,
          1429,
          1413,
          1401,
          1419,
          1428,
          1529,
          1676,
          1416,
          1544,
          1426,
          1410,
          1401,
          1403,
          1568,
          1415,
          1632,
          1431,
          1556,
          1451,
          1400,
          1417,
          1691,
          1591,
          1576,
          1383,
          1464,
          1442,
          1738,
          1385,
          1384,
          1420,
          1397,
          1422,
          1404,
          1391,
          1422,
          1697,
          1565,
          1491,
          1462,
          1627,
          1770,
          1376,
          1387,
          1385,
          1551,
          1461,
          1394,
          1434,
          1413,
          1402,
          1516,
          1466,
          1476,
          1450,
          1406,
          1400,
          1563,
          1490,
          1482,
          1574,
          1392,
          1694,
          1410,
          1417,
          1717,
          1461,
          1520,
          1419,
          1410,
          1525,
          1422,
          1533,
          1412,
          1649,
          1391,
          1380,
          1383,
          1383,
          1389
        ],
        "WindowCenter": [
          645.0,
          643.0,
          641.0,
          640.0,
          641.0,
          645.0,
          646.0,
          648.0,
          647.0,
          652.0,
          647.0,
          648.0,
          648.0,
          648.0,
          646.0,
          646.0,
          647.0,
          648.0,
          645.0,
          647.0,
          648.0,
          647.0,
          648.0,
          648.0,
          646.0,
          646.0,
          646.0,
          645.0,
          647.0,
          648.0,
          649.0,
          648.0,
          648.0,
          648.0,
          649.0,
          651.0,
          648.0,
          647.0,
          648.0,
          647.0,
          652.0,
          647.0,
          647.0,
          648.0,
          648.0,
          648.0,
          649.0,
          648.0,
          648.0,
          647.0,
          647.0,
          648.0,
          649.0,
          650.0,
          649.0,
          650.0,
          649.0,
          649.0,
          648.0,
          648.0,
          647.0,
          647.0,
          648.0,
          649.0,
          649.0,
          649.0,
          648.0,
          648.0,
          648.0,
          647.0,
          648.0,
          647.0,
          647.0,
          648.0,
          648.0,
          649.0,
          650.0,
          649.0,
          647.0,
          648.0,
          647.0,
          647.0,
          648.0,
          649.0,
          648.0,
          649.0,
          649.0,
          648.0,
          648.0,
          649.0,
          648.0,
          648.0,
          649.0,
          649.0,
          648.0,
          649.0,
          648.0,
          649.0,
          648.0,
          649.0,
          648.0,
          649.0,
          649.0,
          648.0,
          649.0,
          649.0,
          649.0,
          649.0,
          649.0,
          648.0,
          647.0,
          648.0,
          647.0,
          648.0,
          650.0,
          649.0,
          650.0,
          649.0,
          651.0,
          650.0,
          651.0,
          652.0,
          645.0,
          650.0,
          645.0,
          641.0,
          645.0,
          646.0,
          648.0,
          648.0,
          648.0,
          648.0,
          649.0,
          649.0,
          649.0,
          651.0,
          649.0,
          650.0,
          649.0,
          650.0,
          652.0,
          652.0,
          650.0,
          649.0,
          650.0,
          651.0,
          650.0,
          648.0,
          649.0,
