{
  "aor": 0.014626768292682925,
  "aqi": 0.0259251243902439,
  "bids_meta": {
    "AcquisitionMatrixPE": 64,
    "AcquisitionNumber": 1,
    "AcquisitionTime": "10:04:32.167500",
    "BandwidthPerPixelPhaseEncode": 26.483,
    "BaseResolution": 64,
    "BodyPartExamined": "HEAD",
    "CogAtlasID": "TODO",
    "ConversionSoftware": "dcm2niix",
    "ConversionSoftwareVersion": "v1.0.20171017 GCC6.3.0",
    "DerivedVendorReportedEchoSpacing": 0.000590001,
    "DeviceSerialNumber": "35177",
    "DwellTime": 4.1e-06,
    "EchoTime": 0.027,
    "EffectiveEchoSpacing": 0.000590001,
    "FlipAngle": 90,
    "ImageOrientationPatientDICOM": [
      0.994723,
      -0.089845,
      -0.0495352,
      0.0933284,
      0.992942,
      0.0731801
    ],
    "ImageType": [
      "ORIGINAL",
      "PRIMARY",
      "M",
      "ND",
      "NORM",
      "MOSAIC"
    ],
    "InPlanePhaseEncodingDirectionDICOM": "COL",
    "InstitutionAddress": "Scott_Ave._4525_St._Louis_MO_US_63110",
    "InstitutionName": "Washington_University",
    "InstitutionalDepartmentName": "Department",
    "MRAcquisitionType": "2D",
    "MagneticFieldStrength": 3,
    "Manufacturer": "Siemens",
    "ManufacturersModelName": "TrioTim",
    "Modality": "MR",
    "PartialFourier": 1,
    "PatientPosition": "HFS",
    "PercentPhaseFOV": 100,
    "PhaseEncodingDirection": "j-",
    "PhaseEncodingSteps": 64,
    "PhaseResolution": 1,
    "PixelBandwidth": 1905,
    "ProcedureStepDescription": "head_GREENE",
    "ProtocolName": "ep2d_bold_rest2",
    "PulseSequenceDetails": "%SiemensSeq%_ep2d_bold",
    "ReceiveCoilName": "HeadMatrix",
    "ReconMatrixPE": 64,
    "RepetitionTime": 2.5,
    "SAR": 0.134691,
    "ScanOptions": "FS",
    "ScanningSequence": "EP",
    "SequenceName": "_epfid2d1_64",
    "SequenceVariant": "SK",
    "SeriesDescription": "ep2d_bold_rest2",
    "SeriesNumber": 9,
    "ShimSetting": [
      -243,
      -19530,
      8058,
      363,
      207,
      -450,
      436,
      3
    ],
    "SliceThickness": 4,
    "SliceTiming": [
      1.255,
      0,
      1.3325,
      0.0775,
      1.4125,
      0.1575,
      1.49,
      0.235,
      1.5675,
      0.3125,
      1.6475,
      0.3925,
      1.725,
      0.47,
      1.8025,
      0.55,
      1.8825,
      0.6275,
      1.96,
      0.705,
      2.04,
      0.785,
      2.1175,
      0.8625,
      2.195,
      0.94,
      2.275,
      1.02,
      2.3525,
      1.0975,
      2.43,
      1.1775
    ],
    "SoftwareVersions": "syngo_MR_B17",
    "SpacingBetweenSlices": 4,
    "StationName": "MRC35177",
    "TaskName": "restfixationnofeedback",
    "TotalReadoutTime": 0.0371701,
    "TxRefAmp": 352.168,
    "dataset": "ds000256",
    "dcmmeta_affine": [
      [
        -3.9788925647735596,
        0.37331345677375793,
        -0.17044296860694885,
        124.96940612792969
      ],
      [
        0.35937994718551636,
        3.971769332885742,
        0.3096678555011749,
        -149.6326141357422
      ],
      [
        -0.19814081490039825,
        -0.29272031784057617,
        3.984351634979248,
        -19.411767959594727
      ],
      [
        0.0,
        0.0,
        0.0,
        1.0
      ]
    ],
    "dcmmeta_reorient_transform": [
      [
        0.0,
        -1.0,
        0.0,
        63.0
      ],
      [
        1.0,
        0.0,
        0.0,
        0.0
      ],
      [
        0.0,
        0.0,
        1.0,
        0.0
      ],
      [
        0.0,
        0.0,
        0.0,
        1.0
      ]
    ],
    "dcmmeta_shape": [
      64,
      64,
      32,
      164
    ],
    "dcmmeta_slice_dim": 2,
    "dcmmeta_version": 0.6,
    "global": {
      "const": {
        "AccessionNumber": ".",
        "AcquisitionMatrix": [
          64,
          0,
          0,
          64
        ],
        "AngioFlag": "N",
        "BitsAllocated": 16,
        "BitsStored": 12,
        "BodyPartExamined": "HEAD",
        "Columns": 384,
        "DeidentificationMethodCodeSequence": [
          {
            "CodeMeaning": "XNAT Edit Script",
            "CodeValue": "625500",
            "CodingSchemeDesignator": "XNAT",
            "CodingSchemeVersion": "0.1"
          }
        ],
        "EchoNumbers": 1,
        "EchoTime": 27.0,
        "EchoTrainLength": 1,
        "FlipAngle": 90.0,
        "HighBit": 11,
        "ImageOrientationPatient": [
          0.9947231483967,
          -0.0898449864318,
          -0.0495352042171,
          0.09332836121152,
          0.99294234130261,
          0.07318007817753
        ],
        "ImagePositionPatient": [
          -844.84111633254,
          -678.5711563124,
          -52.985866137383
        ],
        "ImageType": [
          "ORIGINAL",
          "PRIMARY",
          "M",
          "ND",
          "NORM",
          "MOSAIC"
        ],
        "ImagedNucleus": "1H",
        "ImagingFrequency": 123.255935,
        "InPlanePhaseEncodingDirection": "COL",
        "MRAcquisitionType": "2D",
        "MagneticFieldStrength": 3.0,
        "Manufacturer": "SIEMENS",
        "ManufacturerModelName": "TrioTim",
        "Modality": "MR",
        "NumberOfAverages": 1.0,
        "NumberOfPhaseEncodingSteps": 64,
        "PercentPhaseFieldOfView": 100.0,
        "PercentSampling": 100.0,
        "PerformedProcedureStepStartTime": "092346.593000",
        "PhotometricInterpretation": "MONOCHROME2",
        "PixelBandwidth": 1905.0,
        "PixelRepresentation": 0,
        "PixelSpacing": [
          4.0,
          4.0
        ],
        "PositionReferenceIndicator": "",
        "ProtocolName": "ep2d_bold_rest2",
        "RepetitionTime": 2500.0,
        "Rows": 384,
        "SAR": 0.13469106350211,
        "SamplesPerPixel": 1,
        "ScanOptions": "FS",
        "ScanningSequence": "EP",
        "SequenceName": "*epfid2d1_64",
        "SequenceVariant": "SK",
        "SeriesDescription": "ep2d_bold_rest2",
        "SeriesNumber": 9,
        "SeriesTime": "100434.234000",
        "SliceLocation": -36.244965483676,
        "SliceThickness": 4.0,
        "SmallestImagePixelValue": 0,
        "SoftwareVersions": "syngo MR B17",
        "SpacingBetweenSlices": 4.0000004751863,
        "SpecificCharacterSet": "ISO_IR 100",
        "StudyID": "1",
        "StudyTime": "092346.546000",
        "TransmitCoilName": "Body",
        "VariableFlipAngleFlag": "N",
        "WindowCenterWidthExplanation": "Algo1",
        "dBdt": 0.0
      },
      "slices": {}
    },
    "modality": "bold",
    "subject_id": "CTS209",
    "task_id": "restfixationnofeedback",
    "time": {
      "samples": {
        "AcquisitionNumber": [
          1,
          2,
          3,
          4,
          5,
          6,
          7,
          8,
          9,
          10,
          11,
          12,
          13,
          14,
          15,
          16,
          17,
          18,
          19,
          20,
          21,
          22,
          23,
          24,
          25,
          26,
          27,
          28,
          29,
          30,
          31,
          32,
          33,
          34,
          35,
          36,
          37,
          38,
          39,
          40,
          41,
          42,
          43,
          44,
          45,
          46,
          47,
          48,
          49,
          50,
          51,
          52,
          53,
          54,
          55,
          56,
          57,
          58,
          59,
          60,
          61,
          62,
          63,
          64,
          65,
          66,
          67,
          68,
          69,
          70,
          71,
          72,
          73,
          74,
          75,
          76,
          77,
          78,
          79,
          80,
          81,
          82,
          83,
          84,
          85,
          86,
          87,
          88,
          89,
          90,
          91,
          92,
          93,
          94,
          95,
          96,
          97,
          98,
          99,
          100,
          101,
          102,
          103,
          104,
          105,
          106,
          107,
          108,
          109,
          110,
          111,
          112,
          113,
          114,
          115,
          116,
          117,
          118,
          119,
          120,
          121,
          122,
          123,
          124,
          125,
          126,
          127,
          128,
          129,
          130,
          131,
          132,
          133,
          134,
          135,
          136,
          137,
          138,
          139,
          140,
          141,
          142,
          143,
          144,
          145,
          146,
          147,
          148,
          149,
          150,
          151,
          152,
          153,
          154,
          155,
          156,
          157,
          158,
          159,
          160,
          161,
          162,
          163,
          164
        ],
        "AcquisitionTime": [
          "100432.167500",
          "100434.677500",
          "100437.187500",
          "100439.697500",
          "100442.207500",
          "100444.717500",
          "100447.227500",
          "100449.737500",
          "100452.247500",
          "100454.757500",
          "100457.267500",
          "100459.777500",
          "100502.287500",
          "100504.797500",
          "100507.307500",
          "100509.817500",
          "100512.327500",
          "100514.837500",
          "100517.347500",
          "100519.857500",
          "100522.367500",
          "100524.877500",
          "100527.387500",
          "100529.897500",
          "100532.407500",
          "100534.917500",
          "100537.427500",
          "100539.937500",
          "100542.447500",
          "100544.957500",
          "100547.467500",
          "100549.977500",
          "100552.487500",
          "100554.997500",
          "100557.507500",
          "100600.017500",
          "100602.527500",
          "100605.040000",
          "100607.550000",
          "100610.060000",
          "100612.570000",
          "100615.080000",
          "100617.590000",
          "100620.100000",
          "100622.610000",
          "100625.120000",
          "100627.630000",
          "100630.140000",
          "100632.650000",
          "100635.160000",
          "100637.670000",
          "100640.180000",
          "100642.690000",
          "100645.200000",
          "100647.710000",
          "100650.220000",
          "100652.730000",
          "100655.240000",
          "100657.750000",
          "100700.260000",
          "100702.770000",
          "100705.280000",
          "100707.790000",
          "100710.300000",
          "100712.810000",
          "100715.320000",
          "100717.830000",
          "100720.340000",
          "100722.850000",
          "100725.360000",
          "100727.870000",
          "100730.380000",
          "100732.890000",
          "100735.400000",
          "100737.910000",
          "100740.420000",
          "100742.930000",
          "100745.440000",
          "100747.950000",
          "100750.460000",
          "100752.970000",
          "100755.480000",
          "100757.990000",
          "100800.500000",
          "100803.010000",
          "100805.520000",
          "100808.030000",
          "100810.540000",
          "100813.050000",
          "100815.560000",
          "100818.070000",
          "100820.580000",
          "100823.090000",
          "100825.600000",
          "100828.110000",
          "100830.620000",
          "100833.130000",
          "100835.640000",
          "100838.150000",
          "100840.660000",
          "100843.172500",
          "100845.682500",
          "100848.192500",
          "100850.702500",
          "100853.212500",
          "100855.722500",
          "100858.232500",
          "100900.742500",
          "100903.252500",
          "100905.762500",
          "100908.272500",
          "100910.782500",
          "100913.292500",
          "100915.802500",
          "100918.312500",
          "100920.822500",
          "100923.332500",
          "100925.842500",
          "100928.352500",
          "100930.862500",
          "100933.372500",
          "100935.882500",
          "100938.392500",
          "100940.902500",
          "100943.412500",
          "100945.922500",
          "100948.432500",
          "100950.942500",
          "100953.452500",
          "100955.962500",
          "100958.472500",
          "101000.982500",
          "101003.492500",
          "101006.002500",
          "101008.512500",
          "101011.022500",
          "101013.532500",
          "101016.042500",
          "101018.552500",
          "101021.062500",
          "101023.572500",
          "101026.082500",
          "101028.592500",
          "101031.102500",
          "101033.612500",
          "101036.122500",
          "101038.632500",
          "101041.142500",
          "101043.652500",
          "101046.162500",
          "101048.672500",
          "101051.182500",
          "101053.692500",
          "101056.202500",
          "101058.712500",
          "101101.222500",
          "101103.732500",
          "101106.242500",
          "101108.752500",
          "101111.262500",
          "101113.772500",
          "101116.282500",
          "101118.795000",
          "101121.305000"
        ],
        "ContentTime": [
          "100434.250000",
          "100436.734000",
          "100439.234000",
          "100441.734000",
          "100444.234000",
          "100446.734000",
          "100449.234000",
          "100451.734000",
          "100454.234000",
          "100456.734000",
          "100459.234000",
          "100501.734000",
          "100504.234000",
          "100506.734000",
          "100509.234000",
          "100511.734000",
          "100514.234000",
          "100516.734000",
          "100519.234000",
          "100521.734000",
          "100524.234000",
          "100526.734000",
          "100529.234000",
          "100531.734000",
          "100534.234000",
          "100536.734000",
          "100539.234000",
          "100541.734000",
          "100544.234000",
          "100546.734000",
          "100549.234000",
          "100551.734000",
          "100554.234000",
          "100556.734000",
          "100559.234000",
          "100601.734000",
          "100604.234000",
          "100606.734000",
          "100609.234000",
          "100611.734000",
          "100614.234000",
          "100616.734000",
          "100619.234000",
          "100621.734000",
          "100624.234000",
          "100626.734000",
          "100629.234000",
          "100631.734000",
          "100634.234000",
          "100636.734000",
          "100639.234000",
          "100641.734000",
          "100644.234000",
          "100646.734000",
          "100649.234000",
          "100651.734000",
          "100654.234000",
          "100656.734000",
          "100659.234000",
          "100701.734000",
          "100704.234000",
          "100706.734000",
          "100709.234000",
          "100711.734000",
          "100714.234000",
          "100716.734000",
          "100719.234000",
          "100721.734000",
          "100724.234000",
          "100726.734000",
          "100729.234000",
          "100731.734000",
          "100734.234000",
          "100736.734000",
          "100739.234000",
          "100741.734000",
          "100744.234000",
          "100746.734000",
          "100749.234000",
          "100751.734000",
          "100754.234000",
          "100756.734000",
          "100759.234000",
          "100801.734000",
          "100804.234000",
          "100806.734000",
          "100809.234000",
          "100811.734000",
          "100814.234000",
          "100816.734000",
          "100819.234000",
          "100821.734000",
          "100824.234000",
          "100826.734000",
          "100829.234000",
          "100831.734000",
          "100834.234000",
          "100836.734000",
          "100839.234000",
          "100841.734000",
          "100844.234000",
          "100846.734000",
          "100849.234000",
          "100851.734000",
          "100854.234000",
          "100856.734000",
          "100859.234000",
          "100901.734000",
          "100904.234000",
          "100906.734000",
          "100909.234000",
          "100911.734000",
          "100914.234000",
          "100916.734000",
          "100919.234000",
          "100921.734000",
          "100924.234000",
          "100926.734000",
          "100929.234000",
          "100931.734000",
          "100934.234000",
          "100936.734000",
          "100939.234000",
          "100941.734000",
          "100944.234000",
          "100946.734000",
          "100949.234000",
          "100951.734000",
          "100954.234000",
          "100956.734000",
          "100959.234000",
          "101001.734000",
          "101004.234000",
          "101006.734000",
          "101009.234000",
          "101011.734000",
          "101014.234000",
          "101016.734000",
          "101019.234000",
          "101021.734000",
          "101024.234000",
          "101026.734000",
          "101029.234000",
          "101031.734000",
          "101034.234000",
          "101036.734000",
          "101039.234000",
          "101041.734000",
          "101044.234000",
          "101046.734000",
          "101049.234000",
          "101051.734000",
          "101054.234000",
          "101056.734000",
          "101059.234000",
          "101101.734000",
          "101104.234000",
          "101106.734000",
          "101109.234000",
          "101111.734000",
          "101114.234000",
          "101116.734000",
          "101119.234000",
          "101121.640000"
        ],
        "InstanceCreationTime": [
          "100434.250000",
          "100436.734000",
          "100439.234000",
          "100441.734000",
          "100444.234000",
          "100446.734000",
          "100449.234000",
          "100451.734000",
          "100454.234000",
          "100456.734000",
          "100459.234000",
          "100501.734000",
          "100504.234000",
          "100506.734000",
          "100509.234000",
          "100511.734000",
          "100514.234000",
          "100516.734000",
          "100519.234000",
          "100521.734000",
          "100524.234000",
          "100526.734000",
          "100529.234000",
          "100531.734000",
          "100534.234000",
          "100536.734000",
          "100539.234000",
          "100541.734000",
          "100544.234000",
          "100546.734000",
          "100549.234000",
          "100551.734000",
          "100554.234000",
          "100556.734000",
          "100559.234000",
          "100601.734000",
          "100604.234000",
          "100606.734000",
          "100609.234000",
          "100611.734000",
          "100614.234000",
          "100616.734000",
          "100619.234000",
          "100621.734000",
          "100624.234000",
          "100626.734000",
          "100629.234000",
          "100631.734000",
          "100634.234000",
          "100636.734000",
          "100639.234000",
          "100641.734000",
          "100644.234000",
          "100646.734000",
          "100649.234000",
          "100651.734000",
          "100654.234000",
          "100656.734000",
          "100659.234000",
          "100701.734000",
          "100704.234000",
          "100706.734000",
          "100709.234000",
          "100711.734000",
          "100714.234000",
          "100716.734000",
          "100719.234000",
          "100721.734000",
          "100724.234000",
          "100726.734000",
          "100729.234000",
          "100731.734000",
          "100734.234000",
          "100736.734000",
          "100739.234000",
          "100741.734000",
          "100744.234000",
          "100746.734000",
          "100749.234000",
          "100751.734000",
          "100754.234000",
          "100756.734000",
          "100759.234000",
          "100801.734000",
          "100804.234000",
          "100806.734000",
          "100809.234000",
          "100811.734000",
          "100814.234000",
          "100816.734000",
          "100819.234000",
          "100821.734000",
          "100824.234000",
          "100826.734000",
          "100829.234000",
          "100831.734000",
          "100834.234000",
          "100836.734000",
          "100839.234000",
          "100841.734000",
          "100844.234000",
          "100846.734000",
          "100849.234000",
          "100851.734000",
          "100854.234000",
          "100856.734000",
          "100859.234000",
          "100901.734000",
          "100904.234000",
          "100906.734000",
          "100909.234000",
          "100911.734000",
          "100914.234000",
          "100916.734000",
          "100919.234000",
          "100921.734000",
          "100924.234000",
          "100926.734000",
          "100929.234000",
          "100931.734000",
          "100934.234000",
          "100936.734000",
          "100939.234000",
          "100941.734000",
          "100944.234000",
          "100946.734000",
          "100949.234000",
          "100951.734000",
          "100954.234000",
          "100956.734000",
          "100959.234000",
          "101001.734000",
          "101004.234000",
          "101006.734000",
          "101009.234000",
          "101011.734000",
          "101014.234000",
          "101016.734000",
          "101019.234000",
          "101021.734000",
          "101024.234000",
          "101026.734000",
          "101029.234000",
          "101031.734000",
          "101034.234000",
          "101036.734000",
          "101039.234000",
          "101041.734000",
          "101044.234000",
          "101046.734000",
          "101049.234000",
          "101051.734000",
          "101054.234000",
          "101056.734000",
          "101059.234000",
          "101101.734000",
          "101104.234000",
          "101106.734000",
          "101109.234000",
          "101111.734000",
          "101114.234000",
          "101116.734000",
          "101119.234000",
          "101121.640000"
        ],
        "InstanceNumber": [
          1,
          2,
          3,
          4,
          5,
          6,
          7,
          8,
          9,
          10,
          11,
          12,
          13,
          14,
          15,
          16,
          17,
          18,
          19,
          20,
          21,
          22,
          23,
          24,
          25,
          26,
          27,
          28,
          29,
          30,
          31,
          32,
          33,
          34,
          35,
          36,
          37,
          38,
          39,
          40,
          41,
          42,
          43,
          44,
          45,
          46,
          47,
          48,
          49,
          50,
          51,
          52,
          53,
          54,
          55,
          56,
          57,
          58,
          59,
          60,
          61,
          62,
          63,
          64,
          65,
          66,
          67,
          68,
          69,
          70,
          71,
          72,
          73,
          74,
          75,
          76,
          77,
          78,
          79,
          80,
          81,
          82,
          83,
          84,
          85,
          86,
          87,
          88,
          89,
          90,
          91,
          92,
          93,
          94,
          95,
          96,
          97,
          98,
          99,
          100,
          101,
          102,
          103,
          104,
          105,
          106,
          107,
          108,
          109,
          110,
          111,
          112,
          113,
          114,
          115,
          116,
          117,
          118,
          119,
          120,
          121,
          122,
          123,
          124,
          125,
          126,
          127,
          128,
          129,
          130,
          131,
          132,
          133,
          134,
          135,
          136,
          137,
          138,
          139,
          140,
          141,
          142,
          143,
          144,
          145,
          146,
          147,
          148,
          149,
          150,
          151,
          152,
          153,
          154,
          155,
          156,
          157,
          158,
          159,
          160,
          161,
          162,
          163,
          164
        ],
        "LargestImagePixelValue": [
          1472,
          1424,
          1414,
          1584,
          1426,
          1423,
          1420,
          1403,
          1539,
          1539,
          1429,
          1393,
          1427,
          1418,
          1472,
          1506,
          1411,
          1423,
          1407,
          1423,
          1410,
          1396,
          1412,
          1394,
          1381,
          1446,
          1410,
          1442,
          1410,
          1412,
          1382,
          1468,
          1435,
          1396,
          1428,
          1414,
          1383,
          1416,
          1397,
          1402,
          1421,
          1415,
          1409,
          1478,
          1428,
          1427,
          1398,
          1436,
          1438,
          1417,
          1408,
          1401,
          1453,
          1434,
          1409,
          1411,
          1413,
          1427,
          1450,
          1412,
          1405,
          1419,
          1414,
          1457,
          1472,
          1435,
          1418,
          1421,
          1413,
          1418,
          1466,
          1406,
          1422,
          1421,
          1396,
          1429,
          1462,
          1441,
          1432,
          1469,
          1460,
          1401,
          1439,
          1395,
          1438,
          1542,
          2061,
          1520,
          1500,
          1476,
          1496,
          1533,
          1480,
          1497,
          1509,
          1519,
          1501,
          1543,
          1502,
          1499,
          1523,
          1490,
          1497,
          1512,
          1487,
          1511,
          1501,
          1482,
          1478,
          1481,
          1490,
          1460,
          1486,
          1514,
          1492,
          1515,
          1476,
          1481,
          1503,
          1497,
          1515,
          1526,
          1509,
          1500,
          1525,
          1520,
          1500,
          1499,
          1498,
          1478,
          1497,
          1512,
          1511,
          1527,
          1536,
          1524,
          1502,
          1476,
          1502,
          1504,
          1523,
          1539,
          1516,
          1488,
          1497,
          1495,
          1503,
          1487,
          1465,
          1565,
          1478,
          1520,
          1539,
          1503,
          1491,
          1513,
          1512,
          1502,
          1508,
          1499,
          1600,
          1550,
          1498,
          1499
        ],
        "WindowCenter": [
          673.0,
          674.0,
          673.0,
          673.0,
          673.0,
          673.0,
          673.0,
          673.0,
          673.0,
          673.0,
          672.0,
          671.0,
          672.0,
          673.0,
          672.0,
          672.0,
          672.0,
          673.0,
          670.0,
          672.0,
          672.0,
          672.0,
          672.0,
          672.0,
          672.0,
          672.0,
          671.0,
          672.0,
          671.0,
          672.0,
          669.0,
          671.0,
          671.0,
          671.0,
          669.0,
          672.0,
          671.0,
          671.0,
          671.0,
          671.0,
          671.0,
          670.0,
          671.0,
          670.0,
          671.0,
          672.0,
          671.0,
          670.0,
          671.0,
          670.0,
          669.0,
          671.0,
          671.0,
          671.0,
          674.0,
          672.0,
          672.0,
          672.0,
          672.0,
          671.0,
          671.0,
          671.0,
          672.0,
          672.0,
          670.0,
          672.0,
          673.0,
          672.0,
          672.0,
          671.0,
          671.0,
          673.0,
          671.0,
          672.0,
          670.0,
          671.0,
          671.0,
          673.0,
          671.0,
          672.0,
          673.0,
          672.0,
          671.0,
          656.0,
          658.0,
          649.0,
          659.0,
          671.0,
          668.0,
          669.0,
          669.0,
          671.0,
          671.0,
          672.0,
          672.0,
          673.0,
          672.0,
          673.0,
          672.0,
          670.0,
          672.0,
          671.0,
          670.0,
          674.0,
          672.0,
          672.0,
          672.0,
          673.0,
          672.0,
          671.0,
          672.0,
          671.0,
          672.0,
          672.0,
          673.0,
          673.0,
          673.0,
          672.0,
          672.0,
          672.0,
          672.0,
          672.0,
          672.0,
          672.0,
          672.0,
          671.0,
          672.0,
          672.0,
          672.0,
          672.0,
          672.0,
          671.0,
          672.0,
          672.0,
          671.0,
          672.0,
          672.0,
          672.0,
          672.0,
          672.0,
          672.0,
          672.0,
          672.0,
          671.0,
          671.0,
          671.0,
          671.0,
          671.0,
          671.0,
          670.0,
