{
  "aor": 0.10522398773006136,
  "aqi": 0.03935930865030675,
  "bids_meta": {
    "AcquisitionMatrixPE": 64,
    "AcquisitionNumber": 1,
    "AcquisitionTime": "09:29:29.380000",
    "BandwidthPerPixelPhaseEncode": 26.483,
    "BaseResolution": 64,
    "BodyPartExamined": "HEAD",
    "CogAtlasID": "TODO",
    "ConversionSoftware": "dcm2niix",
    "ConversionSoftwareVersion": "v1.0.20171017 GCC6.3.0",
    "DerivedVendorReportedEchoSpacing": 0.000590001,
    "DeviceSerialNumber": "35177",
    "DwellTime": 4.1e-06,
    "EchoTime": 0.027,
    "EffectiveEchoSpacing": 0.000590001,
    "FlipAngle": 90,
    "ImageOrientationPatientDICOM": [
      0.994727,
      -0.0898032,
      -0.0495321,
      0.0932865,
      0.992946,
      0.0731822
    ],
    "ImageType": [
      "ORIGINAL",
      "PRIMARY",
      "M",
      "ND",
      "NORM",
      "MOSAIC"
    ],
    "InPlanePhaseEncodingDirectionDICOM": "COL",
    "InstitutionAddress": "Scott_Ave._4525_St._Louis_MO_US_63110",
    "InstitutionName": "Washington_University",
    "InstitutionalDepartmentName": "Department",
    "MRAcquisitionType": "2D",
    "MagneticFieldStrength": 3,
    "Manufacturer": "Siemens",
    "ManufacturersModelName": "TrioTim",
    "Modality": "MR",
    "PartialFourier": 1,
    "PatientPosition": "HFS",
    "PercentPhaseFOV": 100,
    "PhaseEncodingDirection": "j-",
    "PhaseEncodingSteps": 64,
    "PhaseResolution": 1,
    "PixelBandwidth": 1905,
    "ProcedureStepDescription": "head_GREENE",
    "ProtocolName": "ep2d_bold_rest1",
    "PulseSequenceDetails": "%SiemensSeq%_ep2d_bold",
    "ReceiveCoilName": "HeadMatrix",
    "ReconMatrixPE": 64,
    "RepetitionTime": 2.5,
    "SAR": 0.134691,
    "ScanOptions": "FS",
    "ScanningSequence": "EP",
    "SequenceName": "_epfid2d1_64",
    "SequenceVariant": "SK",
    "SeriesDescription": "ep2d_bold_rest1",
    "SeriesNumber": 5,
    "ShimSetting": [
      -243,
      -19530,
      8058,
      363,
      207,
      -450,
      436,
      3
    ],
    "SliceThickness": 4,
    "SliceTiming": [
      1.255,
      0,
      1.3325,
      0.08,
      1.4125,
      0.1575,
      1.49,
      0.235,
      1.57,
      0.315,
      1.6475,
      0.3925,
      1.725,
      0.47,
      1.805,
      0.55,
      1.8825,
      0.6275,
      1.96,
      0.7075,
      2.04,
      0.785,
      2.1175,
      0.8625,
      2.1975,
      0.9425,
      2.275,
      1.02,
      2.3525,
      1.0975,
      2.4325,
      1.1775
    ],
    "SoftwareVersions": "syngo_MR_B17",
    "SpacingBetweenSlices": 4,
    "StationName": "MRC35177",
    "TaskName": "restbaseline",
    "TotalReadoutTime": 0.0371701,
    "TxRefAmp": 352.168,
    "dataset": "ds000256",
    "dcmmeta_affine": [
      [
        -3.9789083003997803,
        0.37314608693122864,
        -0.17044295370578766,
        124.97509002685547
      ],
      [
        0.35921287536621094,
        3.9717843532562256,
        0.30966800451278687,
        -148.0855712890625
      ],
      [
        -0.19812849164009094,
        -0.2927287817001343,
        3.984351873397827,
        -17.098648071289062
      ],
      [
        0.0,
        0.0,
        0.0,
        1.0
      ]
    ],
    "dcmmeta_reorient_transform": [
      [
        0.0,
        -1.0,
        0.0,
        63.0
      ],
      [
        1.0,
        0.0,
        0.0,
        0.0
      ],
      [
        0.0,
        0.0,
        1.0,
        0.0
      ],
      [
        0.0,
        0.0,
        0.0,
        1.0
      ]
    ],
    "dcmmeta_shape": [
      64,
      64,
      32,
      164
    ],
    "dcmmeta_slice_dim": 2,
    "dcmmeta_version": 0.6,
    "global": {
      "const": {
        "AccessionNumber": ".",
        "AcquisitionMatrix": [
          64,
          0,
          0,
          64
        ],
        "AngioFlag": "N",
        "BitsAllocated": 16,
        "BitsStored": 12,
        "BodyPartExamined": "HEAD",
        "Columns": 384,
        "DeidentificationMethodCodeSequence": [
          {
            "CodeMeaning": "XNAT Edit Script",
            "CodeValue": "625500",
            "CodingSchemeDesignator": "XNAT",
            "CodingSchemeVersion": "0.1"
          }
        ],
        "EchoNumbers": 1,
        "EchoTime": 27.0,
        "EchoTrainLength": 1,
        "FlipAngle": 90.0,
        "HighBit": 11,
        "ImageOrientationPatient": [
          0.99472707311891,
          -0.0898032221544,
          -0.049532123869,
          0.09328652331711,
          0.99294611675367,
          0.07318219586215
        ],
        "ImagePositionPatient": [
          -844.81199806262,
          -680.14829848739,
          -50.676606731167
        ],
        "ImageType": [
          "ORIGINAL",
          "PRIMARY",
          "M",
          "ND",
          "NORM",
          "MOSAIC"
        ],
        "ImagedNucleus": "1H",
        "ImagingFrequency": 123.255933,
        "InPlanePhaseEncodingDirection": "COL",
        "MRAcquisitionType": "2D",
        "MagneticFieldStrength": 3.0,
        "Manufacturer": "SIEMENS",
        "ManufacturerModelName": "TrioTim",
        "Modality": "MR",
        "NumberOfAverages": 1.0,
        "NumberOfPhaseEncodingSteps": 64,
        "PercentPhaseFieldOfView": 100.0,
        "PercentSampling": 100.0,
        "PerformedProcedureStepStartTime": "092346.593000",
        "PhotometricInterpretation": "MONOCHROME2",
        "PixelBandwidth": 1905.0,
        "PixelRepresentation": 0,
        "PixelSpacing": [
          4.0,
          4.0
        ],
        "PositionReferenceIndicator": "",
        "ProtocolName": "ep2d_bold_rest1",
        "RepetitionTime": 2500.0,
        "Rows": 384,
        "SAR": 0.13469106350211,
        "SamplesPerPixel": 1,
        "ScanOptions": "FS",
        "ScanningSequence": "EP",
        "SequenceName": "*epfid2d1_64",
        "SequenceVariant": "SK",
        "SeriesDescription": "ep2d_bold_rest1",
        "SeriesNumber": 5,
        "SeriesTime": "092932.250000",
        "SliceLocation": -33.821374210578,
        "SliceThickness": 4.0,
        "SmallestImagePixelValue": 0,
        "SoftwareVersions": "syngo MR B17",
        "SpacingBetweenSlices": 4.0000006081492,
        "SpecificCharacterSet": "ISO_IR 100",
        "StudyID": "1",
        "StudyTime": "092346.546000",
        "TransmitCoilName": "Body",
        "VariableFlipAngleFlag": "N",
        "WindowCenterWidthExplanation": "Algo1",
        "dBdt": 0.0
      },
      "slices": {}
    },
    "modality": "bold",
    "subject_id": "CTS209",
    "task_id": "restbaseline",
    "time": {
      "samples": {
        "AcquisitionNumber": [
          1,
          2,
          3,
          4,
          5,
          6,
          7,
          8,
          9,
          10,
          11,
          12,
          13,
          14,
          15,
          16,
          17,
          18,
          19,
          20,
          21,
          22,
          23,
          24,
          25,
          26,
          27,
          28,
          29,
          30,
          31,
          32,
          33,
          34,
          35,
          36,
          37,
          38,
          39,
          40,
          41,
          42,
          43,
          44,
          45,
          46,
          47,
          48,
          49,
          50,
          51,
          52,
          53,
          54,
          55,
          56,
          57,
          58,
          59,
          60,
          61,
          62,
          63,
          64,
          65,
          66,
          67,
          68,
          69,
          70,
          71,
          72,
          73,
          74,
          75,
          76,
          77,
          78,
          79,
          80,
          81,
          82,
          83,
          84,
          85,
          86,
          87,
          88,
          89,
          90,
          91,
          92,
          93,
          94,
          95,
          96,
          97,
          98,
          99,
          100,
          101,
          102,
          103,
          104,
          105,
          106,
          107,
          108,
          109,
          110,
          111,
          112,
          113,
          114,
          115,
          116,
          117,
          118,
          119,
          120,
          121,
          122,
          123,
          124,
          125,
          126,
          127,
          128,
          129,
          130,
          131,
          132,
          133,
          134,
          135,
          136,
          137,
          138,
          139,
          140,
          141,
          142,
          143,
          144,
          145,
          146,
          147,
          148,
          149,
          150,
          151,
          152,
          153,
          154,
          155,
          156,
          157,
          158,
          159,
          160,
          161,
          162,
          163,
          164
        ],
        "AcquisitionTime": [
          "092929.380000",
          "092931.890000",
          "092934.400000",
          "092936.910000",
          "092939.420000",
          "092941.930000",
          "092944.440000",
          "092946.950000",
          "092949.460000",
          "092951.970000",
          "092954.480000",
          "092956.990000",
          "092959.500000",
          "093002.010000",
          "093004.520000",
          "093007.030000",
          "093009.540000",
          "093012.050000",
          "093014.560000",
          "093017.070000",
          "093019.580000",
          "093022.090000",
          "093024.600000",
          "093027.110000",
          "093029.620000",
          "093032.130000",
          "093034.642500",
          "093037.152500",
          "093039.662500",
          "093042.172500",
          "093044.682500",
          "093047.192500",
          "093049.702500",
          "093052.212500",
          "093054.722500",
          "093057.232500",
          "093059.742500",
          "093102.252500",
          "093104.762500",
          "093107.272500",
          "093109.782500",
          "093112.292500",
          "093114.802500",
          "093117.312500",
          "093119.822500",
          "093122.332500",
          "093124.842500",
          "093127.352500",
          "093129.862500",
          "093132.372500",
          "093134.882500",
          "093137.392500",
          "093139.902500",
          "093142.412500",
          "093144.922500",
          "093147.432500",
          "093149.942500",
          "093152.452500",
          "093154.962500",
          "093157.472500",
          "093159.982500",
          "093202.492500",
          "093205.002500",
          "093207.512500",
          "093210.022500",
          "093212.532500",
          "093215.042500",
          "093217.552500",
          "093220.062500",
          "093222.572500",
          "093225.082500",
          "093227.592500",
          "093230.102500",
          "093232.612500",
          "093235.122500",
          "093237.632500",
          "093240.142500",
          "093242.652500",
          "093245.162500",
          "093247.672500",
          "093250.182500",
          "093252.692500",
          "093255.202500",
          "093257.712500",
          "093300.222500",
          "093302.732500",
          "093305.242500",
          "093307.752500",
          "093310.265000",
          "093312.775000",
          "093315.285000",
          "093317.795000",
          "093320.305000",
          "093322.815000",
          "093325.325000",
          "093327.835000",
          "093330.345000",
          "093332.855000",
          "093335.365000",
          "093337.875000",
          "093340.385000",
          "093342.895000",
          "093345.405000",
          "093347.915000",
          "093350.425000",
          "093352.935000",
          "093355.445000",
          "093357.955000",
          "093400.465000",
          "093402.975000",
          "093405.485000",
          "093407.995000",
          "093410.505000",
          "093413.015000",
          "093415.525000",
          "093418.035000",
          "093420.545000",
          "093423.055000",
          "093425.565000",
          "093428.075000",
          "093430.585000",
          "093433.095000",
          "093435.605000",
          "093438.115000",
          "093440.625000",
          "093443.135000",
          "093445.645000",
          "093448.155000",
          "093450.665000",
          "093453.175000",
          "093455.685000",
          "093458.195000",
          "093500.705000",
          "093503.215000",
          "093505.725000",
          "093508.235000",
          "093510.745000",
          "093513.255000",
          "093515.765000",
          "093518.275000",
          "093520.785000",
          "093523.295000",
          "093525.805000",
          "093528.315000",
          "093530.825000",
          "093533.335000",
          "093535.845000",
          "093538.355000",
          "093540.865000",
          "093543.375000",
          "093545.887500",
          "093548.397500",
          "093550.907500",
          "093553.417500",
          "093555.927500",
          "093558.437500",
          "093600.947500",
          "093603.457500",
          "093605.967500",
          "093608.477500",
          "093610.987500",
          "093613.497500",
          "093616.007500",
          "093618.517500"
        ],
        "ContentTime": [
          "092932.250000",
          "092934.750000",
          "092937.250000",
          "092939.750000",
          "092942.250000",
          "092944.750000",
          "092947.250000",
          "092949.750000",
          "092952.250000",
          "092954.750000",
          "092957.250000",
          "092959.750000",
          "093002.250000",
          "093004.750000",
          "093007.250000",
          "093009.750000",
          "093012.250000",
          "093014.750000",
          "093017.250000",
          "093019.750000",
          "093022.250000",
          "093024.750000",
          "093027.250000",
          "093029.750000",
          "093032.250000",
          "093034.750000",
          "093037.250000",
          "093039.750000",
          "093042.250000",
          "093044.750000",
          "093047.250000",
          "093049.750000",
          "093052.250000",
          "093054.750000",
          "093057.250000",
          "093059.750000",
          "093102.250000",
          "093104.750000",
          "093107.250000",
          "093109.750000",
          "093112.250000",
          "093114.750000",
          "093117.250000",
          "093119.750000",
          "093122.250000",
          "093124.750000",
          "093127.250000",
          "093129.750000",
          "093132.250000",
          "093134.750000",
          "093137.250000",
          "093139.750000",
          "093142.250000",
          "093144.750000",
          "093147.250000",
          "093149.750000",
          "093152.250000",
          "093154.750000",
          "093157.250000",
          "093159.750000",
          "093202.250000",
          "093204.750000",
          "093207.250000",
          "093209.750000",
          "093212.250000",
          "093214.750000",
          "093217.250000",
          "093219.750000",
          "093222.250000",
          "093224.750000",
          "093227.250000",
          "093229.750000",
          "093232.250000",
          "093234.750000",
          "093237.250000",
          "093239.750000",
          "093242.250000",
          "093244.750000",
          "093247.250000",
          "093249.750000",
          "093252.250000",
          "093254.750000",
          "093257.250000",
          "093259.750000",
          "093302.250000",
          "093304.750000",
          "093307.250000",
          "093309.750000",
          "093312.250000",
          "093314.750000",
          "093317.250000",
          "093319.750000",
          "093322.250000",
          "093324.750000",
          "093327.250000",
          "093329.750000",
          "093332.250000",
          "093334.750000",
          "093337.250000",
          "093339.750000",
          "093342.250000",
          "093344.750000",
          "093347.250000",
          "093349.750000",
          "093352.250000",
          "093354.750000",
          "093357.250000",
          "093359.750000",
          "093402.250000",
          "093404.750000",
          "093407.250000",
          "093409.750000",
          "093412.250000",
          "093414.750000",
          "093417.250000",
          "093419.750000",
          "093422.250000",
          "093424.750000",
          "093427.250000",
          "093429.750000",
          "093432.250000",
          "093434.750000",
          "093437.250000",
          "093439.750000",
          "093442.250000",
          "093444.750000",
          "093447.250000",
          "093449.750000",
          "093452.250000",
          "093454.750000",
          "093457.250000",
          "093459.750000",
          "093502.250000",
          "093504.750000",
          "093507.250000",
          "093509.750000",
          "093512.250000",
          "093514.750000",
          "093517.250000",
          "093519.750000",
          "093522.250000",
          "093524.750000",
          "093527.250000",
          "093529.750000",
          "093532.250000",
          "093534.750000",
          "093537.250000",
          "093539.750000",
          "093542.250000",
          "093544.750000",
          "093547.250000",
          "093549.750000",
          "093552.250000",
          "093554.750000",
          "093557.250000",
          "093559.750000",
          "093602.250000",
          "093604.750000",
          "093607.250000",
          "093609.750000",
          "093612.250000",
          "093614.750000",
          "093617.250000",
          "093619.328000"
        ],
        "InstanceCreationTime": [
          "092932.250000",
          "092934.750000",
          "092937.250000",
          "092939.750000",
          "092942.250000",
          "092944.750000",
          "092947.250000",
          "092949.750000",
          "092952.250000",
          "092954.750000",
          "092957.250000",
          "092959.750000",
          "093002.250000",
          "093004.750000",
          "093007.250000",
          "093009.750000",
          "093012.250000",
          "093014.750000",
          "093017.250000",
          "093019.750000",
          "093022.250000",
          "093024.750000",
          "093027.250000",
          "093029.750000",
          "093032.250000",
          "093034.750000",
          "093037.250000",
          "093039.750000",
          "093042.250000",
          "093044.750000",
          "093047.250000",
          "093049.750000",
          "093052.250000",
          "093054.750000",
          "093057.250000",
          "093059.750000",
          "093102.250000",
          "093104.750000",
          "093107.250000",
          "093109.750000",
          "093112.250000",
          "093114.750000",
          "093117.250000",
          "093119.750000",
          "093122.250000",
          "093124.750000",
          "093127.250000",
          "093129.750000",
          "093132.250000",
          "093134.750000",
          "093137.250000",
          "093139.750000",
          "093142.250000",
          "093144.750000",
          "093147.250000",
          "093149.750000",
          "093152.250000",
          "093154.750000",
          "093157.250000",
          "093159.750000",
          "093202.250000",
          "093204.750000",
          "093207.250000",
          "093209.750000",
          "093212.250000",
          "093214.750000",
          "093217.250000",
          "093219.750000",
          "093222.250000",
          "093224.750000",
          "093227.250000",
          "093229.750000",
          "093232.250000",
          "093234.750000",
          "093237.250000",
          "093239.750000",
          "093242.250000",
          "093244.750000",
          "093247.250000",
          "093249.750000",
          "093252.250000",
          "093254.750000",
          "093257.250000",
          "093259.750000",
          "093302.250000",
          "093304.750000",
          "093307.250000",
          "093309.750000",
          "093312.250000",
          "093314.750000",
          "093317.250000",
          "093319.750000",
          "093322.250000",
          "093324.750000",
          "093327.250000",
          "093329.750000",
          "093332.250000",
          "093334.750000",
          "093337.250000",
          "093339.750000",
          "093342.250000",
          "093344.750000",
          "093347.250000",
          "093349.750000",
          "093352.250000",
          "093354.750000",
          "093357.250000",
          "093359.750000",
          "093402.250000",
          "093404.750000",
          "093407.250000",
          "093409.750000",
          "093412.250000",
          "093414.750000",
          "093417.250000",
          "093419.750000",
          "093422.250000",
          "093424.750000",
          "093427.250000",
          "093429.750000",
          "093432.250000",
          "093434.750000",
          "093437.250000",
          "093439.750000",
          "093442.250000",
          "093444.750000",
          "093447.250000",
          "093449.750000",
          "093452.250000",
          "093454.750000",
          "093457.250000",
          "093459.750000",
          "093502.250000",
          "093504.750000",
          "093507.250000",
          "093509.750000",
          "093512.250000",
          "093514.750000",
          "093517.250000",
          "093519.750000",
          "093522.250000",
          "093524.750000",
          "093527.250000",
          "093529.750000",
          "093532.250000",
          "093534.750000",
          "093537.250000",
          "093539.750000",
          "093542.250000",
          "093544.750000",
          "093547.250000",
          "093549.750000",
          "093552.250000",
          "093554.750000",
          "093557.250000",
          "093559.750000",
          "093602.250000",
          "093604.750000",
          "093607.250000",
          "093609.750000",
          "093612.250000",
          "093614.750000",
          "093617.250000",
          "093619.328000"
        ],
        "InstanceNumber": [
          1,
          2,
          3,
          4,
          5,
          6,
          7,
          8,
          9,
          10,
          11,
          12,
          13,
          14,
          15,
          16,
          17,
          18,
          19,
          20,
          21,
          22,
          23,
          24,
          25,
          26,
          27,
          28,
          29,
          30,
          31,
          32,
          33,
          34,
          35,
          36,
          37,
          38,
          39,
          40,
          41,
          42,
          43,
          44,
          45,
          46,
          47,
          48,
          49,
          50,
          51,
          52,
          53,
          54,
          55,
          56,
          57,
          58,
          59,
          60,
          61,
          62,
          63,
          64,
          65,
          66,
          67,
          68,
          69,
          70,
          71,
          72,
          73,
          74,
          75,
          76,
          77,
          78,
          79,
          80,
          81,
          82,
          83,
          84,
          85,
          86,
          87,
          88,
          89,
          90,
          91,
          92,
          93,
          94,
          95,
          96,
          97,
          98,
          99,
          100,
          101,
          102,
          103,
          104,
          105,
          106,
          107,
          108,
          109,
          110,
          111,
          112,
          113,
          114,
          115,
          116,
          117,
          118,
          119,
          120,
          121,
          122,
          123,
          124,
          125,
          126,
          127,
          128,
          129,
          130,
          131,
          132,
          133,
          134,
          135,
          136,
          137,
          138,
          139,
          140,
          141,
          142,
          143,
          144,
          145,
          146,
          147,
          148,
          149,
          150,
          151,
          152,
          153,
          154,
          155,
          156,
          157,
          158,
          159,
          160,
          161,
          162,
          163,
          164
        ],
        "LargestImagePixelValue": [
          1446,
          1429,
          1426,
          1420,
          1415,
          1430,
          1420,
          1424,
          1431,
          1426,
          1407,
          1395,
          1421,
          1416,
          1400,
          1409,
          1426,
          1425,
          1407,
          1406,
          1418,
          1404,
          1408,
          1419,
          1415,
          1418,
          1407,
          1406,
          1401,
          1401,
          1402,
          1402,
          1403,
          1395,
          1390,
          1398,
          1387,
          1422,
          1420,
          1383,
          1396,
          1398,
          1374,
          1381,
          1379,
          1378,
          1422,
          1411,
          1416,
          1390,
          1389,
          1396,
          1402,
          1408,
          1399,
          1403,
          1381,
          1366,
          1373,
          1390,
          1376,
          1388,
          1388,
          1372,
          1389,
          1396,
          1381,
          1390,
          1389,
          1399,
          1412,
          1398,
          1388,
          1382,
          1405,
          1386,
          1401,
          1380,
          1413,
          1399,
          1369,
          1395,
          1393,
          1381,
          1373,
          1374,
          1366,
          1383,
          1386,
          1368,
          1370,
          1353,
          1364,
          1386,
          1413,
          1423,
          1399,
          1374,
          1373,
          1380,
          1384,
          1389,
          1383,
          1386,
          1388,
          1384,
          1401,
          1374,
          1364,
          1383,
          1372,
          1375,
          1414,
          1404,
          1388,
          1510,
          1563,
          1452,
          1736,
          1453,
          1444,
          1506,
          1477,
          1456,
          1502,
          1454,
          1413,
          1477,
          1869,
          1560,
          1492,
          1501,
          1504,
          1514,
          1510,
          1482,
          1466,
          1462,
          1493,
          1504,
          1496,
          1417,
          1496,
          1462,
          1515,
          1552,
          1450,
          1451,
          1442,
          1465,
          1487,
          1492,
          1481,
          1457,
          1479,
          1486,
          1465,
          1449,
          1477,
          1482,
          1477,
          1478,
          1453,
          1482
        ],
        "WindowCenter": [
          667.0,
          666.0,
          666.0,
          666.0,
          664.0,
          665.0,
          666.0,
          664.0,
          665.0,
          665.0,
          665.0,
          665.0,
          665.0,
          665.0,
          664.0,
          664.0,
          665.0,
          664.0,
          664.0,
          664.0,
          665.0,
          665.0,
          666.0,
          665.0,
          665.0,
          664.0,
          664.0,
          664.0,
          664.0,
          664.0,
          664.0,
          664.0,
          665.0,
          665.0,
          665.0,
          664.0,
          664.0,
          664.0,
          664.0,
          661.0,
          663.0,
          663.0,
          663.0,
          664.0,
          665.0,
          664.0,
          665.0,
          665.0,
          665.0,
          663.0,
          664.0,
          666.0,
          665.0,
          664.0,
          665.0,
          666.0,
          665.0,
          663.0,
          665.0,
          664.0,
          665.0,
          664.0,
          664.0,
          664.0,
          665.0,
          663.0,
          664.0,
          663.0,
          665.0,
          665.0,
          666.0,
          666.0,
          666.0,
          666.0,
          666.0,
          665.0,
          665.0,
          665.0,
          665.0,
          663.0,
          663.0,
          664.0,
          663.0,
          664.0,
          664.0,
          662.0,
          663.0,
          662.0,
          664.0,
          664.0,
          664.0,
          663.0,
          663.0,
          663.0,
          664.0,
          664.0,
          664.0,
          664.0,
          664.0,
          664.0,
          665.0,
          665.0,
          665.0,
          664.0,
          664.0,
          663.0,
          665.0,
          665.0,
          664.0,
          665.0,
          665.0,
          666.0,
          665.0,
          667.0,
          665.0,
          655.0,
          655.0,
          653.0,
          670.0,
          666.0,
          665.0,
          666.0,
          665.0,
          664.0,
          664.0,
          662.0,
          651.0,
          648.0,
          661.0,
          667.0,
          665.0,
          664.0,
          665.0,
          666.0,
          665.0,
          665.0,
          664.0,
          665.0,
          666.0,
          664.0,
          663.0,
          663.0,
          664.0,
          664.0,
          662.0,
          661.0,
          660.0,
          661.0,
          661.0,
          663.0,
          662.0,
