{
  "aor": 0.004468963414634146,
  "aqi": 0.009354594512195122,
  "bids_meta": {
    "AcquisitionMatrixPE": 64,
    "AcquisitionNumber": 1,
    "AcquisitionTime": "09:38:37.640000",
    "BandwidthPerPixelPhaseEncode": 26.483,
    "BaseResolution": 64,
    "BodyPartExamined": "HEAD",
    "CogAtlasID": "TODO",
    "ConversionSoftware": "dcm2niix",
    "ConversionSoftwareVersion": "v1.0.20171017 GCC6.3.0",
    "DerivedVendorReportedEchoSpacing": 0.000590001,
    "DeviceSerialNumber": "35177",
    "DwellTime": 4.1e-06,
    "EchoTime": 0.027,
    "EffectiveEchoSpacing": 0.000590001,
    "FlipAngle": 90,
    "ImageOrientationPatientDICOM": [
      0.994723,
      -0.089845,
      -0.0495352,
      0.0933284,
      0.992942,
      0.0731801
    ],
    "ImageType": [
      "ORIGINAL",
      "PRIMARY",
      "M",
      "ND",
      "NORM",
      "MOSAIC"
    ],
    "InPlanePhaseEncodingDirectionDICOM": "COL",
    "InstitutionAddress": "Scott_Ave._4525_St._Louis_MO_US_63110",
    "InstitutionName": "Washington_University",
    "InstitutionalDepartmentName": "Department",
    "MRAcquisitionType": "2D",
    "MagneticFieldStrength": 3,
    "Manufacturer": "Siemens",
    "ManufacturersModelName": "TrioTim",
    "Modality": "MR",
    "PartialFourier": 1,
    "PatientPosition": "HFS",
    "PercentPhaseFOV": 100,
    "PhaseEncodingDirection": "j-",
    "PhaseEncodingSteps": 64,
    "PhaseResolution": 1,
    "PixelBandwidth": 1905,
    "ProcedureStepDescription": "head_GREENE",
    "ProtocolName": "ep2d_bold_ad_movie_1B",
    "PulseSequenceDetails": "%SiemensSeq%_ep2d_bold",
    "ReceiveCoilName": "HeadMatrix",
    "ReconMatrixPE": 64,
    "RepetitionTime": 2.5,
    "SAR": 0.134691,
    "ScanOptions": "FS",
    "ScanningSequence": "EP",
    "SequenceName": "_epfid2d1_64",
    "SequenceVariant": "SK",
    "SeriesDescription": "ep2d_bold_ad_movie_1B",
    "SeriesNumber": 6,
    "ShimSetting": [
      -243,
      -19530,
      8058,
      363,
      207,
      -450,
      436,
      3
    ],
    "SliceThickness": 4,
    "SliceTiming": [
      1.255,
      0,
      1.3325,
      0.0775,
      1.4125,
      0.1575,
      1.49,
      0.235,
      1.5675,
      0.315,
      1.6475,
      0.3925,
      1.725,
      0.47,
      1.805,
      0.55,
      1.8825,
      0.6275,
      1.96,
      0.705,
      2.04,
      0.785,
      2.1175,
      0.8625,
      2.195,
      0.9425,
      2.275,
      1.02,
      2.3525,
      1.0975,
      2.4325,
      1.1775
    ],
    "SoftwareVersions": "syngo_MR_B17",
    "SpacingBetweenSlices": 4,
    "StationName": "MRC35177",
    "TaskName": "restmovieadaptive",
    "TotalReadoutTime": 0.0371701,
    "TxRefAmp": 352.168,
    "dataset": "ds000256",
    "dcmmeta_affine": [
      [
        -3.9788925647735596,
        0.37331345677375793,
        -0.17044298350811005,
        124.96939849853516
      ],
      [
        0.35937994718551636,
        3.971769332885742,
        0.3096678853034973,
        -148.0904541015625
      ],
      [
        -0.19814081490039825,
        -0.29272031784057617,
        3.984351873397827,
        -17.0985164642334
      ],
      [
        0.0,
        0.0,
        0.0,
        1.0
      ]
    ],
    "dcmmeta_reorient_transform": [
      [
        0.0,
        -1.0,
        0.0,
        63.0
      ],
      [
        1.0,
        0.0,
        0.0,
        0.0
      ],
      [
        0.0,
        0.0,
        1.0,
        0.0
      ],
      [
        0.0,
        0.0,
        0.0,
        1.0
      ]
    ],
    "dcmmeta_shape": [
      64,
      64,
      32,
      164
    ],
    "dcmmeta_slice_dim": 2,
    "dcmmeta_version": 0.6,
    "global": {
      "const": {
        "AccessionNumber": ".",
        "AcquisitionMatrix": [
          64,
          0,
          0,
          64
        ],
        "AngioFlag": "N",
        "BitsAllocated": 16,
        "BitsStored": 12,
        "BodyPartExamined": "HEAD",
        "Columns": 384,
        "DeidentificationMethodCodeSequence": [
          {
            "CodeMeaning": "XNAT Edit Script",
            "CodeValue": "625500",
            "CodingSchemeDesignator": "XNAT",
            "CodingSchemeVersion": "0.1"
          }
        ],
        "EchoNumbers": 1,
        "EchoTime": 27.0,
        "EchoTrainLength": 1,
        "FlipAngle": 90.0,
        "HighBit": 11,
        "ImageOrientationPatient": [
          0.9947231483967,
          -0.0898449864318,
          -0.0495352042171,
          0.09332836121152,
          0.99294234130261,
          0.07318007817753
        ],
        "ImagePositionPatient": [
          -844.8411144252,
          -680.11332588332,
          -50.672614642022
        ],
        "ImageType": [
          "ORIGINAL",
          "PRIMARY",
          "M",
          "ND",
          "NORM",
          "MOSAIC"
        ],
        "ImagedNucleus": "1H",
        "ImagingFrequency": 123.255927,
        "InPlanePhaseEncodingDirection": "COL",
        "MRAcquisitionType": "2D",
        "MagneticFieldStrength": 3.0,
        "Manufacturer": "SIEMENS",
        "ManufacturerModelName": "TrioTim",
        "Modality": "MR",
        "NumberOfAverages": 1.0,
        "NumberOfPhaseEncodingSteps": 64,
        "PercentPhaseFieldOfView": 100.0,
        "PercentSampling": 100.0,
        "PerformedProcedureStepStartTime": "092346.593000",
        "PhotometricInterpretation": "MONOCHROME2",
        "PixelBandwidth": 1905.0,
        "PixelRepresentation": 0,
        "PixelSpacing": [
          4.0,
          4.0
        ],
        "PositionReferenceIndicator": "",
        "ProtocolName": "ep2d_bold_ad_movie_1B",
        "RepetitionTime": 2500.0,
        "Rows": 384,
        "SAR": 0.13469106350211,
        "SamplesPerPixel": 1,
        "ScanOptions": "FS",
        "ScanningSequence": "EP",
        "SequenceName": "*epfid2d1_64",
        "SequenceVariant": "SK",
        "SeriesDescription": "ep2d_bold_ad_movie_1B",
        "SeriesNumber": 6,
        "SeriesTime": "093840.015000",
        "SliceLocation": -33.821373693944,
        "SliceThickness": 4.0,
        "SmallestImagePixelValue": 0,
        "SoftwareVersions": "syngo MR B17",
        "SpacingBetweenSlices": 4.0000005959134,
        "SpecificCharacterSet": "ISO_IR 100",
        "StudyID": "1",
        "StudyTime": "092346.546000",
        "TransmitCoilName": "Body",
        "VariableFlipAngleFlag": "N",
        "WindowCenterWidthExplanation": "Algo1",
        "dBdt": 0.0
      },
      "slices": {}
    },
    "modality": "bold",
    "subject_id": "CTS209",
    "task_id": "restmovieadaptive",
    "time": {
      "samples": {
        "AcquisitionNumber": [
          1,
          2,
          3,
          4,
          5,
          6,
          7,
          8,
          9,
          10,
          11,
          12,
          13,
          14,
          15,
          16,
          17,
          18,
          19,
          20,
          21,
          22,
          23,
          24,
          25,
          26,
          27,
          28,
          29,
          30,
          31,
          32,
          33,
          34,
          35,
          36,
          37,
          38,
          39,
          40,
          41,
          42,
          43,
          44,
          45,
          46,
          47,
          48,
          49,
          50,
          51,
          52,
          53,
          54,
          55,
          56,
          57,
          58,
          59,
          60,
          61,
          62,
          63,
          64,
          65,
          66,
          67,
          68,
          69,
          70,
          71,
          72,
          73,
          74,
          75,
          76,
          77,
          78,
          79,
          80,
          81,
          82,
          83,
          84,
          85,
          86,
          87,
          88,
          89,
          90,
          91,
          92,
          93,
          94,
          95,
          96,
          97,
          98,
          99,
          100,
          101,
          102,
          103,
          104,
          105,
          106,
          107,
          108,
          109,
          110,
          111,
          112,
          113,
          114,
          115,
          116,
          117,
          118,
          119,
          120,
          121,
          122,
          123,
          124,
          125,
          126,
          127,
          128,
          129,
          130,
          131,
          132,
          133,
          134,
          135,
          136,
          137,
          138,
          139,
          140,
          141,
          142,
          143,
          144,
          145,
          146,
          147,
          148,
          149,
          150,
          151,
          152,
          153,
          154,
          155,
          156,
          157,
          158,
          159,
          160,
          161,
          162,
          163,
          164
        ],
        "AcquisitionTime": [
          "093837.640000",
          "093840.150000",
          "093842.660000",
          "093845.170000",
          "093847.680000",
          "093850.190000",
          "093852.700000",
          "093855.210000",
          "093857.720000",
          "093900.230000",
          "093902.740000",
          "093905.250000",
          "093907.760000",
          "093910.270000",
          "093912.780000",
          "093915.290000",
          "093917.800000",
          "093920.310000",
          "093922.820000",
          "093925.330000",
          "093927.840000",
          "093930.350000",
          "093932.860000",
          "093935.370000",
          "093937.880000",
          "093940.390000",
          "093942.900000",
          "093945.410000",
          "093947.920000",
          "093950.430000",
          "093952.940000",
          "093955.450000",
          "093957.962500",
          "094000.472500",
          "094002.982500",
          "094005.492500",
          "094008.002500",
          "094010.512500",
          "094013.022500",
          "094015.532500",
          "094018.042500",
          "094020.552500",
          "094023.062500",
          "094025.572500",
          "094028.082500",
          "094030.592500",
          "094033.102500",
          "094035.612500",
          "094038.122500",
          "094040.632500",
          "094043.142500",
          "094045.652500",
          "094048.162500",
          "094050.672500",
          "094053.182500",
          "094055.692500",
          "094058.202500",
          "094100.712500",
          "094103.222500",
          "094105.732500",
          "094108.242500",
          "094110.752500",
          "094113.262500",
          "094115.772500",
          "094118.282500",
          "094120.792500",
          "094123.302500",
          "094125.812500",
          "094128.322500",
          "094130.832500",
          "094133.342500",
          "094135.852500",
          "094138.362500",
          "094140.872500",
          "094143.382500",
          "094145.892500",
          "094148.402500",
          "094150.912500",
          "094153.422500",
          "094155.932500",
          "094158.442500",
          "094200.952500",
          "094203.462500",
          "094205.972500",
          "094208.482500",
          "094210.992500",
          "094213.502500",
          "094216.012500",
          "094218.522500",
          "094221.032500",
          "094223.542500",
          "094226.052500",
          "094228.562500",
          "094231.072500",
          "094233.585000",
          "094236.095000",
          "094238.605000",
          "094241.115000",
          "094243.625000",
          "094246.135000",
          "094248.645000",
          "094251.155000",
          "094253.665000",
          "094256.175000",
          "094258.685000",
          "094301.195000",
          "094303.705000",
          "094306.215000",
          "094308.725000",
          "094311.235000",
          "094313.745000",
          "094316.255000",
          "094318.765000",
          "094321.275000",
          "094323.785000",
          "094326.295000",
          "094328.805000",
          "094331.315000",
          "094333.825000",
          "094336.335000",
          "094338.845000",
          "094341.355000",
          "094343.865000",
          "094346.375000",
          "094348.885000",
          "094351.395000",
          "094353.905000",
          "094356.415000",
          "094358.925000",
          "094401.435000",
          "094403.945000",
          "094406.455000",
          "094408.965000",
          "094411.475000",
          "094413.985000",
          "094416.495000",
          "094419.005000",
          "094421.515000",
          "094424.025000",
          "094426.535000",
          "094429.045000",
          "094431.555000",
          "094434.065000",
          "094436.575000",
          "094439.085000",
          "094441.595000",
          "094444.105000",
          "094446.615000",
          "094449.125000",
          "094451.635000",
          "094454.145000",
          "094456.655000",
          "094459.165000",
          "094501.675000",
          "094504.185000",
          "094506.695000",
          "094509.205000",
          "094511.717500",
          "094514.227500",
          "094516.737500",
          "094519.247500",
          "094521.757500",
          "094524.267500",
          "094526.777500"
        ],
        "ContentTime": [
          "093840.015000",
          "093842.515000",
          "093845.015000",
          "093847.515000",
          "093850.015000",
          "093852.515000",
          "093855.015000",
          "093857.515000",
          "093900.015000",
          "093902.515000",
          "093905.015000",
          "093907.515000",
          "093910.015000",
          "093912.515000",
          "093915.015000",
          "093917.515000",
          "093920.015000",
          "093922.515000",
          "093925.015000",
          "093927.515000",
          "093930.015000",
          "093932.515000",
          "093935.015000",
          "093937.515000",
          "093940.015000",
          "093942.515000",
          "093945.015000",
          "093947.515000",
          "093950.015000",
          "093952.515000",
          "093955.015000",
          "093957.515000",
          "094000.015000",
          "094002.515000",
          "094005.015000",
          "094007.515000",
          "094010.015000",
          "094012.515000",
          "094015.015000",
          "094017.515000",
          "094020.015000",
          "094022.515000",
          "094025.015000",
          "094027.515000",
          "094030.015000",
          "094032.515000",
          "094035.015000",
          "094037.515000",
          "094040.015000",
          "094042.515000",
          "094045.015000",
          "094047.515000",
          "094050.015000",
          "094052.515000",
          "094055.015000",
          "094057.515000",
          "094100.015000",
          "094102.515000",
          "094105.015000",
          "094107.515000",
          "094110.015000",
          "094112.515000",
          "094115.015000",
          "094117.515000",
          "094120.015000",
          "094122.515000",
          "094125.015000",
          "094127.515000",
          "094130.015000",
          "094132.515000",
          "094135.015000",
          "094137.515000",
          "094140.015000",
          "094142.515000",
          "094145.015000",
          "094147.515000",
          "094150.015000",
          "094152.515000",
          "094155.015000",
          "094157.515000",
          "094200.015000",
          "094202.515000",
          "094205.015000",
          "094207.515000",
          "094210.015000",
          "094212.515000",
          "094215.015000",
          "094217.515000",
          "094220.015000",
          "094222.515000",
          "094225.015000",
          "094227.515000",
          "094230.015000",
          "094232.515000",
          "094235.015000",
          "094237.515000",
          "094240.015000",
          "094242.515000",
          "094245.015000",
          "094247.515000",
          "094250.015000",
          "094252.515000",
          "094255.015000",
          "094257.515000",
          "094300.015000",
          "094302.515000",
          "094305.015000",
          "094307.515000",
          "094310.015000",
          "094312.515000",
          "094315.015000",
          "094317.515000",
          "094320.015000",
          "094322.515000",
          "094325.015000",
          "094327.515000",
          "094330.015000",
          "094332.515000",
          "094335.015000",
          "094337.515000",
          "094340.015000",
          "094342.515000",
          "094345.015000",
          "094347.515000",
          "094350.015000",
          "094352.515000",
          "094355.015000",
          "094357.515000",
          "094400.015000",
          "094402.515000",
          "094405.015000",
          "094407.515000",
          "094410.015000",
          "094412.515000",
          "094415.015000",
          "094417.515000",
          "094420.015000",
          "094422.515000",
          "094425.015000",
          "094427.515000",
          "094430.015000",
          "094432.515000",
          "094435.015000",
          "094437.515000",
          "094440.015000",
          "094442.515000",
          "094445.015000",
          "094447.515000",
          "094450.015000",
          "094452.515000",
          "094455.015000",
          "094457.515000",
          "094500.015000",
          "094502.515000",
          "094505.015000",
          "094507.515000",
          "094510.015000",
          "094512.515000",
          "094515.015000",
          "094517.515000",
          "094520.015000",
          "094522.515000",
          "094525.015000",
          "094527.218000"
        ],
        "InstanceCreationTime": [
          "093840.015000",
          "093842.515000",
          "093845.015000",
          "093847.515000",
          "093850.015000",
          "093852.515000",
          "093855.015000",
          "093857.515000",
          "093900.015000",
          "093902.515000",
          "093905.015000",
          "093907.515000",
          "093910.015000",
          "093912.515000",
          "093915.015000",
          "093917.515000",
          "093920.015000",
          "093922.515000",
          "093925.015000",
          "093927.515000",
          "093930.015000",
          "093932.515000",
          "093935.015000",
          "093937.515000",
          "093940.015000",
          "093942.515000",
          "093945.015000",
          "093947.515000",
          "093950.015000",
          "093952.515000",
          "093955.015000",
          "093957.515000",
          "094000.015000",
          "094002.515000",
          "094005.015000",
          "094007.515000",
          "094010.015000",
          "094012.515000",
          "094015.015000",
          "094017.515000",
          "094020.015000",
          "094022.515000",
          "094025.015000",
          "094027.515000",
          "094030.015000",
          "094032.515000",
          "094035.015000",
          "094037.515000",
          "094040.015000",
          "094042.515000",
          "094045.015000",
          "094047.515000",
          "094050.015000",
          "094052.515000",
          "094055.015000",
          "094057.515000",
          "094100.015000",
          "094102.515000",
          "094105.015000",
          "094107.515000",
          "094110.015000",
          "094112.515000",
          "094115.015000",
          "094117.515000",
          "094120.015000",
          "094122.515000",
          "094125.015000",
          "094127.515000",
          "094130.015000",
          "094132.515000",
          "094135.015000",
          "094137.515000",
          "094140.015000",
          "094142.515000",
          "094145.015000",
          "094147.515000",
          "094150.015000",
          "094152.515000",
          "094155.015000",
          "094157.515000",
          "094200.015000",
          "094202.515000",
          "094205.015000",
          "094207.515000",
          "094210.015000",
          "094212.515000",
          "094215.015000",
          "094217.515000",
          "094220.015000",
          "094222.515000",
          "094225.015000",
          "094227.515000",
          "094230.015000",
          "094232.515000",
          "094235.015000",
          "094237.515000",
          "094240.015000",
          "094242.515000",
          "094245.015000",
          "094247.515000",
          "094250.015000",
          "094252.515000",
          "094255.015000",
          "094257.515000",
          "094300.015000",
          "094302.515000",
          "094305.015000",
          "094307.515000",
          "094310.015000",
          "094312.515000",
          "094315.015000",
          "094317.515000",
          "094320.015000",
          "094322.515000",
          "094325.015000",
          "094327.515000",
          "094330.015000",
          "094332.515000",
          "094335.015000",
          "094337.515000",
          "094340.015000",
          "094342.515000",
          "094345.015000",
          "094347.515000",
          "094350.015000",
          "094352.515000",
          "094355.015000",
          "094357.515000",
          "094400.015000",
          "094402.515000",
          "094405.015000",
          "094407.515000",
          "094410.015000",
          "094412.515000",
          "094415.015000",
          "094417.515000",
          "094420.015000",
          "094422.515000",
          "094425.015000",
          "094427.515000",
          "094430.015000",
          "094432.515000",
          "094435.015000",
          "094437.515000",
          "094440.015000",
          "094442.515000",
          "094445.015000",
          "094447.515000",
          "094450.015000",
          "094452.515000",
          "094455.015000",
          "094457.515000",
          "094500.015000",
          "094502.515000",
          "094505.015000",
          "094507.515000",
          "094510.015000",
          "094512.515000",
          "094515.015000",
          "094517.515000",
          "094520.015000",
          "094522.515000",
          "094525.015000",
          "094527.218000"
        ],
        "InstanceNumber": [
          1,
          2,
          3,
          4,
          5,
          6,
          7,
          8,
          9,
          10,
          11,
          12,
          13,
          14,
          15,
          16,
          17,
          18,
          19,
          20,
          21,
          22,
          23,
          24,
          25,
          26,
          27,
          28,
          29,
          30,
          31,
          32,
          33,
          34,
          35,
          36,
          37,
          38,
          39,
          40,
          41,
          42,
          43,
          44,
          45,
          46,
          47,
          48,
          49,
          50,
          51,
          52,
          53,
          54,
          55,
          56,
          57,
          58,
          59,
          60,
          61,
          62,
          63,
          64,
          65,
          66,
          67,
          68,
          69,
          70,
          71,
          72,
          73,
          74,
          75,
          76,
          77,
          78,
          79,
          80,
          81,
          82,
          83,
          84,
          85,
          86,
          87,
          88,
          89,
          90,
          91,
          92,
          93,
          94,
          95,
          96,
          97,
          98,
          99,
          100,
          101,
          102,
          103,
          104,
          105,
          106,
          107,
          108,
          109,
          110,
          111,
          112,
          113,
          114,
          115,
          116,
          117,
          118,
          119,
          120,
          121,
          122,
          123,
          124,
          125,
          126,
          127,
          128,
          129,
          130,
          131,
          132,
          133,
          134,
          135,
          136,
          137,
          138,
          139,
          140,
          141,
          142,
          143,
          144,
          145,
          146,
          147,
          148,
          149,
          150,
          151,
          152,
          153,
          154,
          155,
          156,
          157,
          158,
          159,
          160,
          161,
          162,
          163,
          164
        ],
        "LargestImagePixelValue": [
          1489,
          1456,
          1495,
          1470,
          1492,
          1474,
          1471,
          1445,
          1467,
          1448,
          1457,
          1459,
          1458,
          1466,
          1465,
          1450,
          1435,
          1450,
          1442,
          1449,
          1533,
          1471,
          1502,
          1487,
          1482,
          1494,
          1475,
          1482,
          1489,
          1498,
          1445,
          1473,
          1434,
          1448,
          1493,
          1467,
          1444,
          1411,
          1485,
          1465,
          1474,
          1448,
          1484,
          1469,
          1450,
          1454,
          1405,
          1403,
          1413,
          1410,
          1469,
          1478,
          1449,
          1472,
          1422,
          1398,
          1487,
          1462,
          1459,
          1501,
          1445,
          1456,
          1444,
          1504,
          1453,
          1472,
          1467,
          1479,
          1437,
          1434,
          1433,
          1456,
          1470,
          1419,
          1453,
          1391,
          1428,
          1383,
          1422,
          1439,
          1429,
          1404,
          1403,
          1411,
          1447,
          1430,
          1447,
          1448,
          1418,
          1402,
          1419,
          1447,
          1431,
          1435,
          1443,
          1379,
          1396,
          1389,
          1451,
          1446,
          1437,
          1411,
          1438,
          1462,
          1437,
          1410,
          1414,
          1383,
          1405,
          1451,
          1471,
          1391,
          1374,
          1411,
          1473,
          1412,
          1423,
          1414,
          1447,
          1460,
          1423,
          1436,
          1415,
          1402,
          1426,
          1406,
          1441,
          1419,
          1444,
          1458,
          1425,
          1414,
          1424,
          1392,
          1386,
          1445,
          1424,
          1391,
          1447,
          1407,
          1415,
          1456,
          1445,
          1434,
          1420,
          1426,
          1445,
          1464,
          1445,
          1437,
          1420,
          1441,
          1427,
          1427,
          1375,
          1391,
          1390,
          1398,
          1427,
          1433,
          1391,
          1387,
          1387,
          1380
        ],
        "WindowCenter": [
          670.0,
          669.0,
          671.0,
          670.0,
          667.0,
          667.0,
          670.0,
          668.0,
          667.0,
          667.0,
          667.0,
          668.0,
          666.0,
          665.0,
          666.0,
          667.0,
          665.0,
          666.0,
          668.0,
          666.0,
          666.0,
          665.0,
          667.0,
          666.0,
          668.0,
          668.0,
          668.0,
          667.0,
          669.0,
          668.0,
          671.0,
          669.0,
          667.0,
          669.0,
          671.0,
          671.0,
          670.0,
          670.0,
          670.0,
          669.0,
          667.0,
          669.0,
          668.0,
          668.0,
          668.0,
          668.0,
          669.0,
          670.0,
          668.0,
          669.0,
          666.0,
          666.0,
          668.0,
          669.0,
          666.0,
          666.0,
          665.0,
          667.0,
          667.0,
          667.0,
          666.0,
          667.0,
          668.0,
          666.0,
          669.0,
          667.0,
          668.0,
          665.0,
          668.0,
          669.0,
          669.0,
          668.0,
          666.0,
          667.0,
          666.0,
          666.0,
          667.0,
          665.0,
          665.0,
          667.0,
          668.0,
          665.0,
          665.0,
          665.0,
          665.0,
          667.0,
          669.0,
          669.0,
          667.0,
          668.0,
          668.0,
          667.0,
          669.0,
          668.0,
          667.0,
          667.0,
          666.0,
          666.0,
          667.0,
          668.0,
          667.0,
          666.0,
          666.0,
          665.0,
          666.0,
          668.0,
          666.0,
          665.0,
          668.0,
          666.0,
          666.0,
          667.0,
          666.0,
          667.0,
          666.0,
          668.0,
          666.0,
          664.0,
          663.0,
          667.0,
          667.0,
          666.0,
          665.0,
          664.0,
          667.0,
          666.0,
          668.0,
          667.0,
          667.0,
          666.0,
          665.0,
          665.0,
          666.0,
          667.0,
          664.0,
          667.0,
          667.0,
          666.0,
          667.0,
          667.0,
          666.0,
          666.0,
          666.0,
          666.0,
          668.0,
          667.0,
          668.0,
          667.0,
          667.0,
