{
  "aor": 0.03249585365853658,
  "aqi": 0.018389798475609755,
  "bids_meta": {
    "AcquisitionMatrixPE": 64,
    "AcquisitionNumber": 1,
    "AcquisitionTime": "10:13:9.102500",
    "BandwidthPerPixelPhaseEncode": 26.483,
    "BaseResolution": 64,
    "BodyPartExamined": "HEAD",
    "CogAtlasID": "TODO",
    "ConversionSoftware": "dcm2niix",
    "ConversionSoftwareVersion": "v1.0.20171017 GCC6.3.0",
    "DerivedVendorReportedEchoSpacing": 0.000590001,
    "DeviceSerialNumber": "35177",
    "DwellTime": 4.1e-06,
    "EchoTime": 0.027,
    "EffectiveEchoSpacing": 0.000590001,
    "FlipAngle": 90,
    "ImageOrientationPatientDICOM": [
      0.994723,
      -0.089845,
      -0.0495352,
      0.0933284,
      0.992942,
      0.0731801
    ],
    "ImageType": [
      "ORIGINAL",
      "PRIMARY",
      "M",
      "ND",
      "NORM",
      "MOSAIC"
    ],
    "InPlanePhaseEncodingDirectionDICOM": "COL",
    "InstitutionAddress": "Scott_Ave._4525_St._Louis_MO_US_63110",
    "InstitutionName": "Washington_University",
    "InstitutionalDepartmentName": "Department",
    "MRAcquisitionType": "2D",
    "MagneticFieldStrength": 3,
    "Manufacturer": "Siemens",
    "ManufacturersModelName": "TrioTim",
    "Modality": "MR",
    "PartialFourier": 1,
    "PatientPosition": "HFS",
    "PercentPhaseFOV": 100,
    "PhaseEncodingDirection": "j-",
    "PhaseEncodingSteps": 64,
    "PhaseResolution": 1,
    "PixelBandwidth": 1905,
    "ProcedureStepDescription": "head_GREENE",
    "ProtocolName": "ep2d_bold_nonad_rest",
    "PulseSequenceDetails": "%SiemensSeq%_ep2d_bold",
    "ReceiveCoilName": "HeadMatrix",
    "ReconMatrixPE": 64,
    "RepetitionTime": 2.5,
    "SAR": 0.134691,
    "ScanOptions": "FS",
    "ScanningSequence": "EP",
    "SequenceName": "_epfid2d1_64",
    "SequenceVariant": "SK",
    "SeriesDescription": "ep2d_bold_nonad_rest",
    "SeriesNumber": 10,
    "ShimSetting": [
      -243,
      -19530,
      8058,
      363,
      207,
      -450,
      436,
      3
    ],
    "SliceThickness": 4,
    "SliceTiming": [
      1.255,
      0,
      1.3325,
      0.08,
      1.4125,
      0.1575,
      1.49,
      0.235,
      1.57,
      0.315,
      1.6475,
      0.3925,
      1.725,
      0.47,
      1.805,
      0.55,
      1.8825,
      0.6275,
      1.96,
      0.705,
      2.04,
      0.785,
      2.1175,
      0.8625,
      2.1975,
      0.9425,
      2.275,
      1.02,
      2.3525,
      1.0975,
      2.4325,
      1.1775
    ],
    "SoftwareVersions": "syngo_MR_B17",
    "SpacingBetweenSlices": 4,
    "StationName": "MRC35177",
    "TaskName": "restfixationfixed",
    "TotalReadoutTime": 0.0371701,
    "TxRefAmp": 352.168,
    "dataset": "ds000256",
    "dcmmeta_affine": [
      [
        -3.9788925647735596,
        0.37331345677375793,
        -0.17044296860694885,
        124.96940612792969
      ],
      [
        0.35937994718551636,
        3.971769332885742,
        0.3096678555011749,
        -149.6326141357422
      ],
      [
        -0.19814081490039825,
        -0.29272031784057617,
        3.984351634979248,
        -20.953935623168945
      ],
      [
        0.0,
        0.0,
        0.0,
        1.0
      ]
    ],
    "dcmmeta_reorient_transform": [
      [
        0.0,
        -1.0,
        0.0,
        63.0
      ],
      [
        1.0,
        0.0,
        0.0,
        0.0
      ],
      [
        0.0,
        0.0,
        1.0,
        0.0
      ],
      [
        0.0,
        0.0,
        0.0,
        1.0
      ]
    ],
    "dcmmeta_shape": [
      64,
      64,
      32,
      164
    ],
    "dcmmeta_slice_dim": 2,
    "dcmmeta_version": 0.6,
    "global": {
      "const": {
        "AccessionNumber": ".",
        "AcquisitionMatrix": [
          64,
          0,
          0,
          64
        ],
        "AngioFlag": "N",
        "BitsAllocated": 16,
        "BitsStored": 12,
        "BodyPartExamined": "HEAD",
        "Columns": 384,
        "DeidentificationMethodCodeSequence": [
          {
            "CodeMeaning": "XNAT Edit Script",
            "CodeValue": "625500",
            "CodingSchemeDesignator": "XNAT",
            "CodingSchemeVersion": "0.1"
          }
        ],
        "EchoNumbers": 1,
        "EchoTime": 27.0,
        "EchoTrainLength": 1,
        "FlipAngle": 90.0,
        "HighBit": 11,
        "ImageOrientationPatient": [
          0.9947231483967,
          -0.0898449864318,
          -0.0495352042171,
          0.09332836121152,
          0.99294234130261,
          0.07318007817753
        ],
        "ImagePositionPatient": [
          -844.84111728622,
          -678.5711563124,
          -54.528033800957
        ],
        "ImageType": [
          "ORIGINAL",
          "PRIMARY",
          "M",
          "ND",
          "NORM",
          "MOSAIC"
        ],
        "ImagedNucleus": "1H",
        "ImagingFrequency": 123.255952,
        "InPlanePhaseEncodingDirection": "COL",
        "MRAcquisitionType": "2D",
        "MagneticFieldStrength": 3.0,
        "Manufacturer": "SIEMENS",
        "ManufacturerModelName": "TrioTim",
        "Modality": "MR",
        "NumberOfAverages": 1.0,
        "NumberOfPhaseEncodingSteps": 64,
        "PercentPhaseFieldOfView": 100.0,
        "PercentSampling": 100.0,
        "PerformedProcedureStepStartTime": "092346.593000",
        "PhotometricInterpretation": "MONOCHROME2",
        "PixelBandwidth": 1905.0,
        "PixelRepresentation": 0,
        "PixelSpacing": [
          4.0,
          4.0
        ],
        "PositionReferenceIndicator": "",
        "ProtocolName": "ep2d_bold_nonad_rest",
        "RepetitionTime": 2500.0,
        "Rows": 384,
        "SAR": 0.13469106350211,
        "SamplesPerPixel": 1,
        "ScanOptions": "FS",
        "ScanningSequence": "EP",
        "SequenceName": "*epfid2d1_64",
        "SequenceVariant": "SK",
        "SeriesDescription": "ep2d_bold_nonad_rest",
        "SeriesNumber": 10,
        "SeriesTime": "101311.468000",
        "SliceLocation": -37.781099946177,
        "SliceThickness": 4.0,
        "SmallestImagePixelValue": 0,
        "SoftwareVersions": "syngo MR B17",
        "SpacingBetweenSlices": 4.0000004746509,
        "SpecificCharacterSet": "ISO_IR 100",
        "StudyID": "1",
        "StudyTime": "092346.546000",
        "TransmitCoilName": "Body",
        "VariableFlipAngleFlag": "N",
        "WindowCenterWidthExplanation": "Algo1",
        "dBdt": 0.0
      },
      "slices": {}
    },
    "modality": "bold",
    "subject_id": "CTS209",
    "task_id": "restfixationfixed",
    "time": {
      "samples": {
        "AcquisitionNumber": [
          1,
          2,
          3,
          4,
          5,
          6,
          7,
          8,
          9,
          10,
          11,
          12,
          13,
          14,
          15,
          16,
          17,
          18,
          19,
          20,
          21,
          22,
          23,
          24,
          25,
          26,
          27,
          28,
          29,
          30,
          31,
          32,
          33,
          34,
          35,
          36,
          37,
          38,
          39,
          40,
          41,
          42,
          43,
          44,
          45,
          46,
          47,
          48,
          49,
          50,
          51,
          52,
          53,
          54,
          55,
          56,
          57,
          58,
          59,
          60,
          61,
          62,
          63,
          64,
          65,
          66,
          67,
          68,
          69,
          70,
          71,
          72,
          73,
          74,
          75,
          76,
          77,
          78,
          79,
          80,
          81,
          82,
          83,
          84,
          85,
          86,
          87,
          88,
          89,
          90,
          91,
          92,
          93,
          94,
          95,
          96,
          97,
          98,
          99,
          100,
          101,
          102,
          103,
          104,
          105,
          106,
          107,
          108,
          109,
          110,
          111,
          112,
          113,
          114,
          115,
          116,
          117,
          118,
          119,
          120,
          121,
          122,
          123,
          124,
          125,
          126,
          127,
          128,
          129,
          130,
          131,
          132,
          133,
          134,
          135,
          136,
          137,
          138,
          139,
          140,
          141,
          142,
          143,
          144,
          145,
          146,
          147,
          148,
          149,
          150,
          151,
          152,
          153,
          154,
          155,
          156,
          157,
          158,
          159,
          160,
          161,
          162,
          163,
          164
        ],
        "AcquisitionTime": [
          "101309.102500",
          "101311.612500",
          "101314.122500",
          "101316.632500",
          "101319.142500",
          "101321.652500",
          "101324.162500",
          "101326.672500",
          "101329.182500",
          "101331.692500",
          "101334.202500",
          "101336.712500",
          "101339.222500",
          "101341.732500",
          "101344.242500",
          "101346.752500",
          "101349.262500",
          "101351.772500",
          "101354.282500",
          "101356.792500",
          "101359.302500",
          "101401.812500",
          "101404.322500",
          "101406.832500",
          "101409.342500",
          "101411.852500",
          "101414.362500",
          "101416.875000",
          "101419.385000",
          "101421.895000",
          "101424.405000",
          "101426.915000",
          "101429.425000",
          "101431.935000",
          "101434.445000",
          "101436.955000",
          "101439.465000",
          "101441.975000",
          "101444.485000",
          "101446.995000",
          "101449.505000",
          "101452.015000",
          "101454.525000",
          "101457.035000",
          "101459.545000",
          "101502.055000",
          "101504.565000",
          "101507.075000",
          "101509.585000",
          "101512.095000",
          "101514.605000",
          "101517.115000",
          "101519.625000",
          "101522.135000",
          "101524.645000",
          "101527.155000",
          "101529.665000",
          "101532.175000",
          "101534.685000",
          "101537.195000",
          "101539.705000",
          "101542.215000",
          "101544.725000",
          "101547.235000",
          "101549.745000",
          "101552.255000",
          "101554.765000",
          "101557.275000",
          "101559.785000",
          "101602.295000",
          "101604.805000",
          "101607.315000",
          "101609.825000",
          "101612.335000",
          "101614.845000",
          "101617.355000",
          "101619.865000",
          "101622.375000",
          "101624.885000",
          "101627.395000",
          "101629.905000",
          "101632.415000",
          "101634.925000",
          "101637.435000",
          "101639.945000",
          "101642.455000",
          "101644.965000",
          "101647.475000",
          "101649.985000",
          "101652.495000",
          "101655.007500",
          "101657.517500",
          "101700.027500",
          "101702.537500",
          "101705.047500",
          "101707.557500",
          "101710.067500",
          "101712.577500",
          "101715.087500",
          "101717.597500",
          "101720.107500",
          "101722.617500",
          "101725.127500",
          "101727.637500",
          "101730.147500",
          "101732.657500",
          "101735.167500",
          "101737.677500",
          "101740.187500",
          "101742.697500",
          "101745.207500",
          "101747.717500",
          "101750.227500",
          "101752.737500",
          "101755.247500",
          "101757.757500",
          "101800.267500",
          "101802.777500",
          "101805.287500",
          "101807.797500",
          "101810.307500",
          "101812.817500",
          "101815.327500",
          "101817.837500",
          "101820.347500",
          "101822.857500",
          "101825.367500",
          "101827.877500",
          "101830.387500",
          "101832.897500",
          "101835.407500",
          "101837.917500",
          "101840.427500",
          "101842.937500",
          "101845.447500",
          "101847.957500",
          "101850.467500",
          "101852.977500",
          "101855.487500",
          "101857.997500",
          "101900.507500",
          "101903.017500",
          "101905.527500",
          "101908.037500",
          "101910.547500",
          "101913.057500",
          "101915.567500",
          "101918.077500",
          "101920.587500",
          "101923.097500",
          "101925.607500",
          "101928.117500",
          "101930.630000",
          "101933.140000",
          "101935.650000",
          "101938.160000",
          "101940.670000",
          "101943.180000",
          "101945.690000",
          "101948.200000",
          "101950.710000",
          "101953.220000",
          "101955.730000",
          "101958.240000"
        ],
        "ContentTime": [
          "101311.468000",
          "101313.968000",
          "101316.468000",
          "101318.968000",
          "101321.468000",
          "101323.968000",
          "101326.468000",
          "101328.968000",
          "101331.468000",
          "101333.968000",
          "101336.468000",
          "101338.968000",
          "101341.468000",
          "101343.968000",
          "101346.468000",
          "101348.968000",
          "101351.468000",
          "101353.968000",
          "101356.468000",
          "101358.968000",
          "101401.468000",
          "101403.968000",
          "101406.468000",
          "101408.968000",
          "101411.468000",
          "101413.968000",
          "101416.468000",
          "101418.968000",
          "101421.468000",
          "101423.968000",
          "101426.468000",
          "101428.968000",
          "101431.468000",
          "101433.968000",
          "101436.468000",
          "101438.968000",
          "101441.468000",
          "101443.968000",
          "101446.468000",
          "101448.968000",
          "101451.468000",
          "101453.968000",
          "101456.468000",
          "101458.968000",
          "101501.468000",
          "101503.968000",
          "101506.468000",
          "101508.968000",
          "101511.468000",
          "101513.968000",
          "101516.468000",
          "101518.968000",
          "101521.468000",
          "101523.968000",
          "101526.468000",
          "101528.968000",
          "101531.468000",
          "101533.968000",
          "101536.468000",
          "101538.968000",
          "101541.468000",
          "101543.968000",
          "101546.468000",
          "101548.968000",
          "101551.468000",
          "101553.968000",
          "101556.468000",
          "101558.968000",
          "101601.468000",
          "101603.968000",
          "101606.468000",
          "101608.968000",
          "101611.468000",
          "101613.968000",
          "101616.468000",
          "101618.968000",
          "101621.468000",
          "101623.968000",
          "101626.468000",
          "101628.968000",
          "101631.468000",
          "101633.968000",
          "101636.468000",
          "101638.968000",
          "101641.468000",
          "101643.968000",
          "101646.468000",
          "101648.968000",
          "101651.468000",
          "101653.968000",
          "101656.468000",
          "101658.968000",
          "101701.468000",
          "101703.968000",
          "101706.468000",
          "101708.968000",
          "101711.468000",
          "101713.968000",
          "101716.468000",
          "101718.968000",
          "101721.468000",
          "101723.968000",
          "101726.468000",
          "101728.968000",
          "101731.468000",
          "101733.968000",
          "101736.468000",
          "101738.968000",
          "101741.468000",
          "101743.968000",
          "101746.468000",
          "101748.968000",
          "101751.468000",
          "101753.968000",
          "101756.468000",
          "101758.968000",
          "101801.468000",
          "101803.968000",
          "101806.468000",
          "101808.968000",
          "101811.468000",
          "101813.968000",
          "101816.468000",
          "101818.968000",
          "101821.468000",
          "101823.968000",
          "101826.468000",
          "101828.968000",
          "101831.468000",
          "101833.968000",
          "101836.468000",
          "101838.968000",
          "101841.468000",
          "101843.968000",
          "101846.468000",
          "101848.968000",
          "101851.468000",
          "101853.968000",
          "101856.468000",
          "101858.968000",
          "101901.468000",
          "101903.968000",
          "101906.468000",
          "101908.968000",
          "101911.468000",
          "101913.968000",
          "101916.468000",
          "101918.968000",
          "101921.468000",
          "101923.968000",
          "101926.468000",
          "101928.968000",
          "101931.468000",
          "101933.968000",
          "101936.468000",
          "101938.968000",
          "101941.468000",
          "101943.968000",
          "101946.468000",
          "101948.968000",
          "101951.468000",
          "101953.968000",
          "101956.468000",
          "101958.765000"
        ],
        "InstanceCreationTime": [
          "101311.468000",
          "101313.968000",
          "101316.468000",
          "101318.968000",
          "101321.468000",
          "101323.968000",
          "101326.468000",
          "101328.968000",
          "101331.468000",
          "101333.968000",
          "101336.468000",
          "101338.968000",
          "101341.468000",
          "101343.968000",
          "101346.468000",
          "101348.968000",
          "101351.468000",
          "101353.968000",
          "101356.468000",
          "101358.968000",
          "101401.468000",
          "101403.968000",
          "101406.468000",
          "101408.968000",
          "101411.468000",
          "101413.968000",
          "101416.468000",
          "101418.968000",
          "101421.468000",
          "101423.968000",
          "101426.468000",
          "101428.968000",
          "101431.468000",
          "101433.968000",
          "101436.468000",
          "101438.968000",
          "101441.468000",
          "101443.968000",
          "101446.468000",
          "101448.968000",
          "101451.468000",
          "101453.968000",
          "101456.468000",
          "101458.968000",
          "101501.468000",
          "101503.968000",
          "101506.468000",
          "101508.968000",
          "101511.468000",
          "101513.968000",
          "101516.468000",
          "101518.968000",
          "101521.468000",
          "101523.968000",
          "101526.468000",
          "101528.968000",
          "101531.468000",
          "101533.968000",
          "101536.468000",
          "101538.968000",
          "101541.468000",
          "101543.968000",
          "101546.468000",
          "101548.968000",
          "101551.468000",
          "101553.968000",
          "101556.468000",
          "101558.968000",
          "101601.468000",
          "101603.968000",
          "101606.468000",
          "101608.968000",
          "101611.468000",
          "101613.968000",
          "101616.468000",
          "101618.968000",
          "101621.468000",
          "101623.968000",
          "101626.468000",
          "101628.968000",
          "101631.468000",
          "101633.968000",
          "101636.468000",
          "101638.968000",
          "101641.468000",
          "101643.968000",
          "101646.468000",
          "101648.968000",
          "101651.468000",
          "101653.968000",
          "101656.468000",
          "101658.968000",
          "101701.468000",
          "101703.968000",
          "101706.468000",
          "101708.968000",
          "101711.468000",
          "101713.968000",
          "101716.468000",
          "101718.968000",
          "101721.468000",
          "101723.968000",
          "101726.468000",
          "101728.968000",
          "101731.468000",
          "101733.968000",
          "101736.468000",
          "101738.968000",
          "101741.468000",
          "101743.968000",
          "101746.468000",
          "101748.968000",
          "101751.468000",
          "101753.968000",
          "101756.468000",
          "101758.968000",
          "101801.468000",
          "101803.968000",
          "101806.468000",
          "101808.968000",
          "101811.468000",
          "101813.968000",
          "101816.468000",
          "101818.968000",
          "101821.468000",
          "101823.968000",
          "101826.468000",
          "101828.968000",
          "101831.468000",
          "101833.968000",
          "101836.468000",
          "101838.968000",
          "101841.468000",
          "101843.968000",
          "101846.468000",
          "101848.968000",
          "101851.468000",
          "101853.968000",
          "101856.468000",
          "101858.968000",
          "101901.468000",
          "101903.968000",
          "101906.468000",
          "101908.968000",
          "101911.468000",
          "101913.968000",
          "101916.468000",
          "101918.968000",
          "101921.468000",
          "101923.968000",
          "101926.468000",
          "101928.968000",
          "101931.468000",
          "101933.968000",
          "101936.468000",
          "101938.968000",
          "101941.468000",
          "101943.968000",
          "101946.468000",
          "101948.968000",
          "101951.468000",
          "101953.968000",
          "101956.468000",
          "101958.765000"
        ],
        "InstanceNumber": [
          1,
          2,
          3,
          4,
          5,
          6,
          7,
          8,
          9,
          10,
          11,
          12,
          13,
          14,
          15,
          16,
          17,
          18,
          19,
          20,
          21,
          22,
          23,
          24,
          25,
          26,
          27,
          28,
          29,
          30,
          31,
          32,
          33,
          34,
          35,
          36,
          37,
          38,
          39,
          40,
          41,
          42,
          43,
          44,
          45,
          46,
          47,
          48,
          49,
          50,
          51,
          52,
          53,
          54,
          55,
          56,
          57,
          58,
          59,
          60,
          61,
          62,
          63,
          64,
          65,
          66,
          67,
          68,
          69,
          70,
          71,
          72,
          73,
          74,
          75,
          76,
          77,
          78,
          79,
          80,
          81,
          82,
          83,
          84,
          85,
          86,
          87,
          88,
          89,
          90,
          91,
          92,
          93,
          94,
          95,
          96,
          97,
          98,
          99,
          100,
          101,
          102,
          103,
          104,
          105,
          106,
          107,
          108,
          109,
          110,
          111,
          112,
          113,
          114,
          115,
          116,
          117,
          118,
          119,
          120,
          121,
          122,
          123,
          124,
          125,
          126,
          127,
          128,
          129,
          130,
          131,
          132,
          133,
          134,
          135,
          136,
          137,
          138,
          139,
          140,
          141,
          142,
          143,
          144,
          145,
          146,
          147,
          148,
          149,
          150,
          151,
          152,
          153,
          154,
          155,
          156,
          157,
          158,
          159,
          160,
          161,
          162,
          163,
          164
        ],
        "LargestImagePixelValue": [
          1536,
          1483,
          1486,
          1493,
          1500,
          1523,
          1526,
          1495,
          1488,
          1498,
          1483,
          1563,
          1568,
          1541,
          1527,
          1516,
          1483,
          1527,
          1502,
          1612,
          1522,
          1541,
          1562,
          1501,
          1496,
          1535,
          1559,
          1517,
          1532,
          1567,
          1600,
          1502,
          1521,
          1491,
          1544,
          1558,
          1635,
          1622,
          1518,
          1500,
          1477,
          1467,
          1471,
          1527,
          1483,
          1472,
          1507,
          1527,
          1510,
          1570,
          1521,
          1549,
          1448,
          1482,
          1521,
          1579,
          1555,
          1548,
          1548,
          1501,
          1567,
          1519,
          1477,
          1441,
          1507,
          1429,
          1459,
          1411,
          1422,
          1397,
          1456,
          1446,
          1433,
          1455,
          1441,
          1429,
          1458,
          1456,
          1427,
          1433,
          1467,
          1480,
          1487,
          1458,
          1470,
          1459,
          1426,
          1446,
          1466,
          1476,
          1459,
          1423,
          1460,
          1509,
          1475,
          1424,
          1514,
          1439,
          1483,
          1444,
          1449,
          1535,
          1474,
          1451,
          1492,
          1470,
          1448,
          1470,
          1460,
          1518,
          1492,
          1460,
          1476,
          1447,
          1515,
          1518,
          1533,
          1494,
          1518,
          1492,
          1535,
          1484,
          1452,
          1505,
          1445,
          1449,
          1466,
          1450,
          1485,
          1478,
          1469,
          1441,
          1465,
          1450,
          1475,
          1479,
          1534,
          1435,
          1471,
          1467,
          1455,
          1439,
          1450,
          1445,
          1468,
          1483,
          1534,
          1523,
          1591,
          1812,
          1471,
          1515,
          1589,
          1538,
          1555,
          1677,
          1539,
          1509,
          1513,
          1455,
          1469,
          1543,
          1524,
          1502
        ],
        "WindowCenter": [
          671.0,
          675.0,
          674.0,
          673.0,
          672.0,
          673.0,
          672.0,
          673.0,
          672.0,
          672.0,
          672.0,
          672.0,
          675.0,
          673.0,
          674.0,
          673.0,
          672.0,
          674.0,
          672.0,
          673.0,
          673.0,
          673.0,
          673.0,
          674.0,
          671.0,
          673.0,
          673.0,
          673.0,
          674.0,
          672.0,
          671.0,
          671.0,
          672.0,
          664.0,
          674.0,
          675.0,
          670.0,
          667.0,
          670.0,
          670.0,
          671.0,
          671.0,
          671.0,
          671.0,
          671.0,
          671.0,
          673.0,
          673.0,
          673.0,
          672.0,
          671.0,
          670.0,
          668.0,
          670.0,
          660.0,
          673.0,
          672.0,
          671.0,
          670.0,
          669.0,
          671.0,
          671.0,
          670.0,
          671.0,
          673.0,
          672.0,
          671.0,
          672.0,
          670.0,
          672.0,
          671.0,
          671.0,
          672.0,
          672.0,
          671.0,
          672.0,
          671.0,
          672.0,
          673.0,
          673.0,
          672.0,
          673.0,
          673.0,
          674.0,
          673.0,
          671.0,
          673.0,
          672.0,
          670.0,
          671.0,
          672.0,
          672.0,
          672.0,
          671.0,
          671.0,
          675.0,
          674.0,
          673.0,
          669.0,
          673.0,
          671.0,
          671.0,
          672.0,
          671.0,
          674.0,
          672.0,
          673.0,
          672.0,
          673.0,
          674.0,
          673.0,
          672.0,
          672.0,
          674.0,
          674.0,
          674.0,
          673.0,
          672.0,
          666.0,
          670.0,
          675.0,
          672.0,
          673.0,
          671.0,
          672.0,
          674.0,
          673.0,
          673.0,
          671.0,
          673.0,
          672.0,
          673.0,
          673.0,
          671.0,
          672.0,
          672.0,
          671.0,
          671.0,
          673.0,
          670.0,
          671.0,
          671.0,
          673.0,
          672.0,
          671.0,
          665.0,
          670.0,
          672.0,
          671.0,
