{
  "aor": 0.025321768292682928,
  "aqi": 0.039459067073170734,
  "bids_meta": {
    "AcquisitionMatrixPE": 64,
    "AcquisitionNumber": 1,
    "AcquisitionTime": "17:00:28.822500",
    "BandwidthPerPixelPhaseEncode": 26.483,
    "BaseResolution": 64,
    "BodyPartExamined": "HEAD",
    "CogAtlasID": "TODO",
    "ConversionSoftware": "dcm2niix",
    "ConversionSoftwareVersion": "v1.0.20171017 GCC6.3.0",
    "DerivedVendorReportedEchoSpacing": 0.000590001,
    "DeviceSerialNumber": "35177",
    "DwellTime": 4.1e-06,
    "EchoTime": 0.027,
    "EffectiveEchoSpacing": 0.000590001,
    "FlipAngle": 90,
    "ImageOrientationPatientDICOM": [
      0.991018,
      0.118541,
      -0.0619059,
      -0.100795,
      0.966319,
      0.236785
    ],
    "ImageType": [
      "ORIGINAL",
      "PRIMARY",
      "M",
      "ND",
      "NORM",
      "MOSAIC"
    ],
    "InPlanePhaseEncodingDirectionDICOM": "COL",
    "InstitutionAddress": "Scott_Ave._4525_St._Louis_MO_US_63110",
    "InstitutionName": "Washington_University",
    "InstitutionalDepartmentName": "Department",
    "MRAcquisitionType": "2D",
    "MagneticFieldStrength": 3,
    "Manufacturer": "Siemens",
    "ManufacturersModelName": "TrioTim",
    "Modality": "MR",
    "PartialFourier": 1,
    "PatientPosition": "HFS",
    "PercentPhaseFOV": 100,
    "PhaseEncodingDirection": "j-",
    "PhaseEncodingSteps": 64,
    "PhaseResolution": 1,
    "PixelBandwidth": 1905,
    "ProcedureStepDescription": "head_GREENE",
    "ProtocolName": "ep2d_bold_movie_rest_2B",
    "PulseSequenceDetails": "%SiemensSeq%_ep2d_bold",
    "ReceiveCoilName": "HeadMatrix",
    "ReconMatrixPE": 64,
    "RepetitionTime": 2.5,
    "SAR": 0.141927,
    "ScanOptions": "FS",
    "ScanningSequence": "EP",
    "SequenceName": "_epfid2d1_64",
    "SequenceVariant": "SK",
    "SeriesDescription": "ep2d_bold_movie_rest_2B",
    "SeriesNumber": 7,
    "ShimSetting": [
      -302,
      -19650,
      8017,
      441,
      12,
      -20,
      590,
      -1
    ],
    "SliceThickness": 4,
    "SliceTiming": [
      1.2525,
      0,
      1.3325,
      0.0775,
      1.41,
      0.155,
      1.49,
      0.235,
      1.5675,
      0.3125,
      1.645,
      0.39,
      1.725,
      0.47,
      1.8025,
      0.5475,
      1.88,
      0.6275,
      1.96,
      0.705,
      2.0375,
      0.7825,
      2.1175,
      0.8625,
      2.195,
      0.94,
      2.2725,
      1.0175,
      2.3525,
      1.0975,
      2.43,
      1.175
    ],
    "SoftwareVersions": "syngo_MR_B17",
    "SpacingBetweenSlices": 4,
    "StationName": "MRC35177",
    "TaskName": "restmovienofeedback",
    "TotalReadoutTime": 0.0371701,
    "TxRefAmp": 351.345,
    "dataset": "ds000256",
    "dcmmeta_affine": [
      [
        -3.9640703201293945,
        -0.4031798839569092,
        -0.3515581786632538,
        143.54417419433594
      ],
      [
        -0.4741620421409607,
        3.8652772903442383,
        0.9136748909950256,
        -131.7812042236328
      ],
      [
        -0.2476235330104828,
        -0.9471413493156433,
        3.878352403640747,
        4.2241973876953125
      ],
      [
        0.0,
        0.0,
        0.0,
        1.0
      ]
    ],
    "dcmmeta_reorient_transform": [
      [
        0.0,
        -1.0,
        0.0,
        63.0
      ],
      [
        1.0,
        0.0,
        0.0,
        0.0
      ],
      [
        0.0,
        0.0,
        1.0,
        0.0
      ],
      [
        0.0,
        0.0,
        0.0,
        1.0
      ]
    ],
    "dcmmeta_shape": [
      64,
      64,
      32,
      164
    ],
    "dcmmeta_slice_dim": 2,
    "dcmmeta_version": 0.6,
    "global": {
      "const": {
        "AccessionNumber": ".",
        "AcquisitionMatrix": [
          64,
          0,
          0,
          64
        ],
        "AngioFlag": "N",
        "BitsAllocated": 16,
        "BitsStored": 12,
        "BodyPartExamined": "HEAD",
        "Columns": 384,
        "DeidentificationMethodCodeSequence": [
          {
            "CodeMeaning": "XNAT Edit Script",
            "CodeValue": "625500",
            "CodingSchemeDesignator": "XNAT",
            "CodingSchemeVersion": "0.1"
          }
        ],
        "EchoNumbers": 1,
        "EchoTime": 27.0,
        "EchoTrainLength": 1,
        "FlipAngle": 90.0,
        "HighBit": 11,
        "ImageOrientationPatient": [
          0.99101756205372,
          0.11854051341877,
          -0.0619058832383,
          -0.1007949698849,
          0.96631934415875,
          0.23678534403653
        ],
        "ImagePositionPatient": [
          -687.8862933264,
          -806.04158563113,
          -167.3685640461
        ],
        "ImageType": [
          "ORIGINAL",
          "PRIMARY",
          "M",
          "ND",
          "NORM",
          "MOSAIC"
        ],
        "ImagedNucleus": "1H",
        "ImagingFrequency": 123.256106,
        "InPlanePhaseEncodingDirection": "COL",
        "MRAcquisitionType": "2D",
        "MagneticFieldStrength": 3.0,
        "Manufacturer": "SIEMENS",
        "ManufacturerModelName": "TrioTim",
        "Modality": "MR",
        "NumberOfAverages": 1.0,
        "NumberOfPhaseEncodingSteps": 64,
        "PercentPhaseFieldOfView": 100.0,
        "PercentSampling": 100.0,
        "PerformedProcedureStepStartTime": "163246.328000",
        "PhotometricInterpretation": "MONOCHROME2",
        "PixelBandwidth": 1905.0,
        "PixelRepresentation": 0,
        "PixelSpacing": [
          4.0,
          4.0
        ],
        "PositionReferenceIndicator": "",
        "ProtocolName": "ep2d_bold_movie_rest_2B",
        "RepetitionTime": 2500.0,
        "Rows": 384,
        "SAR": 0.14192723919662,
        "SamplesPerPixel": 1,
        "ScanOptions": "FS",
        "ScanningSequence": "EP",
        "SequenceName": "*epfid2d1_64",
        "SequenceVariant": "SK",
        "SeriesDescription": "ep2d_bold_movie_rest_2B",
        "SeriesNumber": 7,
        "SeriesTime": "170031.531000",
        "SliceLocation": -38.621577237173,
        "SliceThickness": 4.0,
        "SmallestImagePixelValue": 0,
        "SoftwareVersions": "syngo MR B17",
        "SpacingBetweenSlices": 4.0000014896331,
        "SpecificCharacterSet": "ISO_IR 100",
        "StudyID": "1",
        "StudyTime": "163246.281000",
        "TransmitCoilName": "Body",
        "VariableFlipAngleFlag": "N",
        "WindowCenterWidthExplanation": "Algo1",
        "dBdt": 0.0
      },
      "slices": {}
    },
    "modality": "bold",
    "subject_id": "CTS226",
    "task_id": "restmovienofeedback",
    "time": {
      "samples": {
        "AcquisitionNumber": [
          1,
          2,
          3,
          4,
          5,
          6,
          7,
          8,
          9,
          10,
          11,
          12,
          13,
          14,
          15,
          16,
          17,
          18,
          19,
          20,
          21,
          22,
          23,
          24,
          25,
          26,
          27,
          28,
          29,
          30,
          31,
          32,
          33,
          34,
          35,
          36,
          37,
          38,
          39,
          40,
          41,
          42,
          43,
          44,
          45,
          46,
          47,
          48,
          49,
          50,
          51,
          52,
          53,
          54,
          55,
          56,
          57,
          58,
          59,
          60,
          61,
          62,
          63,
          64,
          65,
          66,
          67,
          68,
          69,
          70,
          71,
          72,
          73,
          74,
          75,
          76,
          77,
          78,
          79,
          80,
          81,
          82,
          83,
          84,
          85,
          86,
          87,
          88,
          89,
          90,
          91,
          92,
          93,
          94,
          95,
          96,
          97,
          98,
          99,
          100,
          101,
          102,
          103,
          104,
          105,
          106,
          107,
          108,
          109,
          110,
          111,
          112,
          113,
          114,
          115,
          116,
          117,
          118,
          119,
          120,
          121,
          122,
          123,
          124,
          125,
          126,
          127,
          128,
          129,
          130,
          131,
          132,
          133,
          134,
          135,
          136,
          137,
          138,
          139,
          140,
          141,
          142,
          143,
          144,
          145,
          146,
          147,
          148,
          149,
          150,
          151,
          152,
          153,
          154,
          155,
          156,
          157,
          158,
          159,
          160,
          161,
          162,
          163,
          164
        ],
        "AcquisitionTime": [
          "170028.822500",
          "170031.332500",
          "170033.842500",
          "170036.355000",
          "170038.865000",
          "170041.375000",
          "170043.885000",
          "170046.395000",
          "170048.905000",
          "170051.415000",
          "170053.925000",
          "170056.435000",
          "170058.945000",
          "170101.455000",
          "170103.965000",
          "170106.475000",
          "170108.985000",
          "170111.495000",
          "170114.005000",
          "170116.515000",
          "170119.025000",
          "170121.535000",
          "170124.045000",
          "170126.555000",
          "170129.065000",
          "170131.575000",
          "170134.085000",
          "170136.595000",
          "170139.105000",
          "170141.615000",
          "170144.125000",
          "170146.635000",
          "170149.145000",
          "170151.655000",
          "170154.165000",
          "170156.675000",
          "170159.185000",
          "170201.695000",
          "170204.205000",
          "170206.715000",
          "170209.225000",
          "170211.735000",
          "170214.245000",
          "170216.755000",
          "170219.265000",
          "170221.775000",
          "170224.285000",
          "170226.795000",
          "170229.305000",
          "170231.815000",
          "170234.325000",
          "170236.835000",
          "170239.345000",
          "170241.855000",
          "170244.365000",
          "170246.875000",
          "170249.385000",
          "170251.895000",
          "170254.405000",
          "170256.915000",
          "170259.425000",
          "170301.935000",
          "170304.445000",
          "170306.955000",
          "170309.465000",
          "170311.977500",
          "170314.487500",
          "170316.997500",
          "170319.507500",
          "170322.017500",
          "170324.527500",
          "170327.037500",
          "170329.547500",
          "170332.057500",
          "170334.567500",
          "170337.077500",
          "170339.587500",
          "170342.097500",
          "170344.607500",
          "170347.117500",
          "170349.627500",
          "170352.137500",
          "170354.647500",
          "170357.157500",
          "170359.667500",
          "170402.177500",
          "170404.687500",
          "170407.197500",
          "170409.707500",
          "170412.217500",
          "170414.727500",
          "170417.237500",
          "170419.747500",
          "170422.257500",
          "170424.767500",
          "170427.277500",
          "170429.787500",
          "170432.297500",
          "170434.807500",
          "170437.317500",
          "170439.827500",
          "170442.337500",
          "170444.847500",
          "170447.357500",
          "170449.867500",
          "170452.377500",
          "170454.887500",
          "170457.397500",
          "170459.907500",
          "170502.417500",
          "170504.927500",
          "170507.437500",
          "170509.947500",
          "170512.457500",
          "170514.967500",
          "170517.477500",
          "170519.987500",
          "170522.497500",
          "170525.007500",
          "170527.517500",
          "170530.027500",
          "170532.537500",
          "170535.047500",
          "170537.557500",
          "170540.067500",
          "170542.577500",
          "170545.087500",
          "170547.600000",
          "170550.110000",
          "170552.620000",
          "170555.130000",
          "170557.640000",
          "170600.150000",
          "170602.660000",
          "170605.170000",
          "170607.680000",
          "170610.190000",
          "170612.700000",
          "170615.210000",
          "170617.720000",
          "170620.230000",
          "170622.740000",
          "170625.250000",
          "170627.760000",
          "170630.270000",
          "170632.780000",
          "170635.290000",
          "170637.800000",
          "170640.310000",
          "170642.820000",
          "170645.330000",
          "170647.840000",
          "170650.350000",
          "170652.860000",
          "170655.370000",
          "170657.880000",
          "170700.390000",
          "170702.900000",
          "170705.410000",
          "170707.920000",
          "170710.430000",
          "170712.940000",
          "170715.450000",
          "170717.960000"
        ],
        "ContentTime": [
          "170031.531000",
          "170034.031000",
          "170036.531000",
          "170039.031000",
          "170041.531000",
          "170044.031000",
          "170046.531000",
          "170049.031000",
          "170051.531000",
          "170054.031000",
          "170056.531000",
          "170059.031000",
          "170101.531000",
          "170104.031000",
          "170106.531000",
          "170109.031000",
          "170111.531000",
          "170114.031000",
          "170116.531000",
          "170119.031000",
          "170121.531000",
          "170124.031000",
          "170126.531000",
          "170129.031000",
          "170131.531000",
          "170134.031000",
          "170136.531000",
          "170139.031000",
          "170141.531000",
          "170144.031000",
          "170146.531000",
          "170149.031000",
          "170151.531000",
          "170154.031000",
          "170156.531000",
          "170159.031000",
          "170201.531000",
          "170204.031000",
          "170206.531000",
          "170209.031000",
          "170211.531000",
          "170214.031000",
          "170216.531000",
          "170219.031000",
          "170221.531000",
          "170224.031000",
          "170226.531000",
          "170229.031000",
          "170231.531000",
          "170234.031000",
          "170236.531000",
          "170239.031000",
          "170241.531000",
          "170244.031000",
          "170246.531000",
          "170249.031000",
          "170251.531000",
          "170254.031000",
          "170256.531000",
          "170259.031000",
          "170301.531000",
          "170304.031000",
          "170306.531000",
          "170309.031000",
          "170311.531000",
          "170314.031000",
          "170316.531000",
          "170319.031000",
          "170321.531000",
          "170324.031000",
          "170326.531000",
          "170329.031000",
          "170331.531000",
          "170334.031000",
          "170336.531000",
          "170339.031000",
          "170341.531000",
          "170344.031000",
          "170346.531000",
          "170349.031000",
          "170351.531000",
          "170354.031000",
          "170356.531000",
          "170359.031000",
          "170401.531000",
          "170404.031000",
          "170406.531000",
          "170409.031000",
          "170411.531000",
          "170414.031000",
          "170416.531000",
          "170419.031000",
          "170421.531000",
          "170424.031000",
          "170426.531000",
          "170429.031000",
          "170431.531000",
          "170434.031000",
          "170436.531000",
          "170439.031000",
          "170441.531000",
          "170444.031000",
          "170446.531000",
          "170449.031000",
          "170451.531000",
          "170454.031000",
          "170456.531000",
          "170459.031000",
          "170501.531000",
          "170504.031000",
          "170506.531000",
          "170509.031000",
          "170511.531000",
          "170514.031000",
          "170516.531000",
          "170519.031000",
          "170521.531000",
          "170524.031000",
          "170526.531000",
          "170529.031000",
          "170531.531000",
          "170534.031000",
          "170536.531000",
          "170539.031000",
          "170541.531000",
          "170544.031000",
          "170546.531000",
          "170549.031000",
          "170551.531000",
          "170554.031000",
          "170556.531000",
          "170559.031000",
          "170601.531000",
          "170604.031000",
          "170606.531000",
          "170609.031000",
          "170611.531000",
          "170614.031000",
          "170616.531000",
          "170619.031000",
          "170621.531000",
          "170624.031000",
          "170626.531000",
          "170629.031000",
          "170631.531000",
          "170634.031000",
          "170636.531000",
          "170639.031000",
          "170641.531000",
          "170644.031000",
          "170646.531000",
          "170649.031000",
          "170651.531000",
          "170654.031000",
          "170656.531000",
          "170659.031000",
          "170701.531000",
          "170704.031000",
          "170706.531000",
          "170709.031000",
          "170711.531000",
          "170714.031000",
          "170716.531000",
          "170718.765000"
        ],
        "InstanceCreationTime": [
          "170031.531000",
          "170034.031000",
          "170036.531000",
          "170039.031000",
          "170041.531000",
          "170044.031000",
          "170046.531000",
          "170049.031000",
          "170051.531000",
          "170054.031000",
          "170056.531000",
          "170059.031000",
          "170101.531000",
          "170104.031000",
          "170106.531000",
          "170109.031000",
          "170111.531000",
          "170114.031000",
          "170116.531000",
          "170119.031000",
          "170121.531000",
          "170124.031000",
          "170126.531000",
          "170129.031000",
          "170131.531000",
          "170134.031000",
          "170136.531000",
          "170139.031000",
          "170141.531000",
          "170144.031000",
          "170146.531000",
          "170149.031000",
          "170151.531000",
          "170154.031000",
          "170156.531000",
          "170159.031000",
          "170201.531000",
          "170204.031000",
          "170206.531000",
          "170209.031000",
          "170211.531000",
          "170214.031000",
          "170216.531000",
          "170219.031000",
          "170221.531000",
          "170224.031000",
          "170226.531000",
          "170229.031000",
          "170231.531000",
          "170234.031000",
          "170236.531000",
          "170239.031000",
          "170241.531000",
          "170244.031000",
          "170246.531000",
          "170249.031000",
          "170251.531000",
          "170254.031000",
          "170256.531000",
          "170259.031000",
          "170301.531000",
          "170304.031000",
          "170306.531000",
          "170309.031000",
          "170311.531000",
          "170314.031000",
          "170316.531000",
          "170319.031000",
          "170321.531000",
          "170324.031000",
          "170326.531000",
          "170329.031000",
          "170331.531000",
          "170334.031000",
          "170336.531000",
          "170339.031000",
          "170341.531000",
          "170344.031000",
          "170346.531000",
          "170349.031000",
          "170351.531000",
          "170354.031000",
          "170356.531000",
          "170359.031000",
          "170401.531000",
          "170404.031000",
          "170406.531000",
          "170409.031000",
          "170411.531000",
          "170414.031000",
          "170416.531000",
          "170419.031000",
          "170421.531000",
          "170424.031000",
          "170426.531000",
          "170429.031000",
          "170431.531000",
          "170434.031000",
          "170436.531000",
          "170439.031000",
          "170441.531000",
          "170444.031000",
          "170446.531000",
          "170449.031000",
          "170451.531000",
          "170454.031000",
          "170456.531000",
          "170459.031000",
          "170501.531000",
          "170504.031000",
          "170506.531000",
          "170509.031000",
          "170511.531000",
          "170514.031000",
          "170516.531000",
          "170519.031000",
          "170521.531000",
          "170524.031000",
          "170526.531000",
          "170529.031000",
          "170531.531000",
          "170534.031000",
          "170536.531000",
          "170539.031000",
          "170541.531000",
          "170544.031000",
          "170546.531000",
          "170549.031000",
          "170551.531000",
          "170554.031000",
          "170556.531000",
          "170559.031000",
          "170601.531000",
          "170604.031000",
          "170606.531000",
          "170609.031000",
          "170611.531000",
          "170614.031000",
          "170616.531000",
          "170619.031000",
          "170621.531000",
          "170624.031000",
          "170626.531000",
          "170629.031000",
          "170631.531000",
          "170634.031000",
          "170636.531000",
          "170639.031000",
          "170641.531000",
          "170644.031000",
          "170646.531000",
          "170649.031000",
          "170651.531000",
          "170654.031000",
          "170656.531000",
          "170659.031000",
          "170701.531000",
          "170704.031000",
          "170706.531000",
          "170709.031000",
          "170711.531000",
          "170714.031000",
          "170716.531000",
          "170718.765000"
        ],
        "InstanceNumber": [
          1,
          2,
          3,
          4,
          5,
          6,
          7,
          8,
          9,
          10,
          11,
          12,
          13,
          14,
          15,
          16,
          17,
          18,
          19,
          20,
          21,
          22,
          23,
          24,
          25,
          26,
          27,
          28,
          29,
          30,
          31,
          32,
          33,
          34,
          35,
          36,
          37,
          38,
          39,
          40,
          41,
          42,
          43,
          44,
          45,
          46,
          47,
          48,
          49,
          50,
          51,
          52,
          53,
          54,
          55,
          56,
          57,
          58,
          59,
          60,
          61,
          62,
          63,
          64,
          65,
          66,
          67,
          68,
          69,
          70,
          71,
          72,
          73,
          74,
          75,
          76,
          77,
          78,
          79,
          80,
          81,
          82,
          83,
          84,
          85,
          86,
          87,
          88,
          89,
          90,
          91,
          92,
          93,
          94,
          95,
          96,
          97,
          98,
          99,
          100,
          101,
          102,
          103,
          104,
          105,
          106,
          107,
          108,
          109,
          110,
          111,
          112,
          113,
          114,
          115,
          116,
          117,
          118,
          119,
          120,
          121,
          122,
          123,
          124,
          125,
          126,
          127,
          128,
          129,
          130,
          131,
          132,
          133,
          134,
          135,
          136,
          137,
          138,
          139,
          140,
          141,
          142,
          143,
          144,
          145,
          146,
          147,
          148,
          149,
          150,
          151,
          152,
          153,
          154,
          155,
          156,
          157,
          158,
          159,
          160,
          161,
          162,
          163,
          164
        ],
        "LargestImagePixelValue": [
          1612,
          1549,
          1633,
          1874,
          1521,
          1462,
          1479,
          1526,
          1453,
          1508,
          1489,
          1491,
          1456,
          1440,
          1439,
          1456,
          1819,
          1427,
          1484,
          1504,
          1753,
          1422,
          1478,
          1431,
          1478,
          1480,
          1525,
          1494,
          1508,
          1533,
          1469,
          1493,
          1447,
          1517,
          1508,
          1499,
          1487,
          1592,
          1458,
          1477,
          1468,
          1445,
          1480,
          1511,
          1454,
          1500,
          1654,
          1451,
          1493,
          1735,
          1813,
          1491,
          1465,
          1439,
          1452,
          1512,
          1467,
          1493,
          1512,
          1674,
          1511,
          1818,
          1343,
          1531,
          2076,
          1456,
          1468,
          1454,
          1405,
          1689,
          1521,
          1574,
          1582,
          1577,
          1754,
          1519,
          1482,
          1662,
          1554,
          1470,
          1491,
          1487,
          1481,
          1452,
          1491,
          1536,
          1454,
          1533,
          1486,
          1543,
          1561,
          1647,
          1507,
          1598,
          1505,
          1595,
          1548,
          1600,
          1535,
          1503,
          1536,
          1868,
          1554,
          1518,
          1563,
          1491,
          1516,
          1568,
          1486,
          1527,
          1508,
          1500,
          1545,
          1518,
          1541,
          1606,
          1539,
          1462,
          1535,
          1466,
          1428,
          1456,
          1522,
          1428,
          1465,
          1512,
          1460,
          1469,
          1502,
          1476,
          1464,
          1624,
          1430,
          1534,
          1430,
          1510,
          1655,
          1432,
          1337,
          1460,
          2141,
          1637,
          1479,
          1403,
          1443,
          1465,
          1399,
          1445,
          1453,
          1440,
          1443,
          1481,
          1468,
          1519,
          1502,
          1436,
          1491,
          1434,
          1474,
          1610,
          1528,
          1473,
          1449,
          1528
        ],
        "WindowCenter": [
          641.0,
          641.0,
          643.0,
          642.0,
          640.0,
          641.0,
          638.0,
          641.0,
          642.0,
          639.0,
          640.0,
          641.0,
          639.0,
          642.0,
          643.0,
          642.0,
          637.0,
          638.0,
          642.0,
          645.0,
          644.0,
          642.0,
          642.0,
          642.0,
          644.0,
          642.0,
          642.0,
          643.0,
          645.0,
          644.0,
          643.0,
          642.0,
          643.0,
          644.0,
          649.0,
          644.0,
          645.0,
          644.0,
          647.0,
          647.0,
          644.0,
          643.0,
          643.0,
          641.0,
          628.0,
          642.0,
          639.0,
          639.0,
          643.0,
          643.0,
          642.0,
          640.0,
          642.0,
          642.0,
          641.0,
          642.0,
          642.0,
          641.0,
          644.0,
          644.0,
          641.0,
          644.0,
          629.0,
          632.0,
          651.0,
          648.0,
          647.0,
          648.0,
          649.0,
          645.0,
          651.0,
          647.0,
          651.0,
          653.0,
          653.0,
          650.0,
          645.0,
          650.0,
          648.0,
          648.0,
          642.0,
          649.0,
          649.0,
          648.0,
          649.0,
          649.0,
          650.0,
          650.0,
          646.0,
          649.0,
          652.0,
          651.0,
          650.0,
          650.0,
          649.0,
          651.0,
          648.0,
          652.0,
          648.0,
          648.0,
          644.0,
          646.0,
          645.0,
          648.0,
          644.0,
          644.0,
          644.0,
          642.0,
          643.0,
          644.0,
          648.0,
          645.0,
          645.0,
          646.0,
          645.0,
          644.0,
          646.0,
          644.0,
          650.0,
          641.0,
          644.0,
          644.0,
          644.0,
          643.0,
          645.0,
          649.0,
          649.0,
          645.0,
          645.0,
          642.0,
          644.0,
          650.0,
          649.0,
          644.0,
          649.0,
          648.0,
          648.0,
          648.0,
          633.0,
          641.0,
          635.0,
          638.0,
          637.0,
          640.0,
          641.0,
          641.0,
          644.0,
          630.0,
          648.0,
