{
  "aor": 0.02736463414634147,
  "aqi": 0.14718278475609758,
  "bids_meta": {
    "AcquisitionMatrixPE": 64,
    "AcquisitionNumber": 1,
    "AcquisitionTime": "17:18:17.132500",
    "BandwidthPerPixelPhaseEncode": 26.483,
    "BaseResolution": 64,
    "BodyPartExamined": "HEAD",
    "CogAtlasID": "TODO",
    "ConversionSoftware": "dcm2niix",
    "ConversionSoftwareVersion": "v1.0.20171017 GCC6.3.0",
    "DerivedVendorReportedEchoSpacing": 0.000590001,
    "DeviceSerialNumber": "35177",
    "DwellTime": 4.1e-06,
    "EchoTime": 0.027,
    "EffectiveEchoSpacing": 0.000590001,
    "FlipAngle": 90,
    "ImageOrientationPatientDICOM": [
      0.991018,
      0.118541,
      -0.0619059,
      -0.100795,
      0.966319,
      0.236785
    ],
    "ImageType": [
      "ORIGINAL",
      "PRIMARY",
      "M",
      "ND",
      "NORM",
      "MOSAIC"
    ],
    "InPlanePhaseEncodingDirectionDICOM": "COL",
    "InstitutionAddress": "Scott_Ave._4525_St._Louis_MO_US_63110",
    "InstitutionName": "Washington_University",
    "InstitutionalDepartmentName": "Department",
    "MRAcquisitionType": "2D",
    "MagneticFieldStrength": 3,
    "Manufacturer": "Siemens",
    "ManufacturersModelName": "TrioTim",
    "Modality": "MR",
    "PartialFourier": 1,
    "PatientPosition": "HFS",
    "PercentPhaseFOV": 100,
    "PhaseEncodingDirection": "j-",
    "PhaseEncodingSteps": 64,
    "PhaseResolution": 1,
    "PixelBandwidth": 1905,
    "ProcedureStepDescription": "head_GREENE",
    "ProtocolName": "ep2d_bold_ad_rest",
    "PulseSequenceDetails": "%SiemensSeq%_ep2d_bold",
    "ReceiveCoilName": "HeadMatrix",
    "ReconMatrixPE": 64,
    "RepetitionTime": 2.5,
    "SAR": 0.141927,
    "ScanOptions": "FS",
    "ScanningSequence": "EP",
    "SequenceName": "_epfid2d1_64",
    "SequenceVariant": "SK",
    "SeriesDescription": "ep2d_bold_ad_rest",
    "SeriesNumber": 9,
    "ShimSetting": [
      -302,
      -19650,
      8017,
      441,
      12,
      -20,
      590,
      -1
    ],
    "SliceThickness": 4,
    "SliceTiming": [
      1.255,
      0,
      1.3325,
      0.0775,
      1.4125,
      0.1575,
      1.49,
      0.235,
      1.5675,
      0.3125,
      1.6475,
      0.3925,
      1.725,
      0.47,
      1.8025,
      0.5475,
      1.8825,
      0.6275,
      1.96,
      0.705,
      2.0375,
      0.785,
      2.1175,
      0.8625,
      2.195,
      0.94,
      2.275,
      1.02,
      2.3525,
      1.0975,
      2.43,
      1.175
    ],
    "SoftwareVersions": "syngo_MR_B17",
    "SpacingBetweenSlices": 4,
    "StationName": "MRC35177",
    "TaskName": "restfixationadaptive",
    "TotalReadoutTime": 0.0371701,
    "TxRefAmp": 351.345,
    "dataset": "ds000256",
    "dcmmeta_affine": [
      [
        -3.9640703201293945,
        -0.4031798839569092,
        -0.3515581786632538,
        143.54417419433594
      ],
      [
        -0.4741620421409607,
        3.8652772903442383,
        0.9136748909950256,
        -131.7812042236328
      ],
      [
        -0.2476235330104828,
        -0.9471413493156433,
        3.878352403640747,
        4.2241973876953125
      ],
      [
        0.0,
        0.0,
        0.0,
        1.0
      ]
    ],
    "dcmmeta_reorient_transform": [
      [
        0.0,
        -1.0,
        0.0,
        63.0
      ],
      [
        1.0,
        0.0,
        0.0,
        0.0
      ],
      [
        0.0,
        0.0,
        1.0,
        0.0
      ],
      [
        0.0,
        0.0,
        0.0,
        1.0
      ]
    ],
    "dcmmeta_shape": [
      64,
      64,
      32,
      164
    ],
    "dcmmeta_slice_dim": 2,
    "dcmmeta_version": 0.6,
    "global": {
      "const": {
        "AccessionNumber": ".",
        "AcquisitionMatrix": [
          64,
          0,
          0,
          64
        ],
        "AngioFlag": "N",
        "BitsAllocated": 16,
        "BitsStored": 12,
        "BodyPartExamined": "HEAD",
        "Columns": 384,
        "DeidentificationMethodCodeSequence": [
          {
            "CodeMeaning": "XNAT Edit Script",
            "CodeValue": "625500",
            "CodingSchemeDesignator": "XNAT",
            "CodingSchemeVersion": "0.1"
          }
        ],
        "EchoNumbers": 1,
        "EchoTime": 27.0,
        "EchoTrainLength": 1,
        "FlipAngle": 90.0,
        "HighBit": 11,
        "ImageOrientationPatient": [
          0.99101756205372,
          0.11854051341877,
          -0.0619058832383,
          -0.1007949698849,
          0.96631934415875,
          0.23678534403653
        ],
        "ImagePositionPatient": [
          -687.8862933264,
          -806.04158563113,
          -167.3685640461
        ],
        "ImageType": [
          "ORIGINAL",
          "PRIMARY",
          "M",
          "ND",
          "NORM",
          "MOSAIC"
        ],
        "ImagedNucleus": "1H",
        "ImagingFrequency": 123.256111,
        "InPlanePhaseEncodingDirection": "COL",
        "MRAcquisitionType": "2D",
        "MagneticFieldStrength": 3.0,
        "Manufacturer": "SIEMENS",
        "ManufacturerModelName": "TrioTim",
        "Modality": "MR",
        "NumberOfAverages": 1.0,
        "NumberOfPhaseEncodingSteps": 64,
        "PercentPhaseFieldOfView": 100.0,
        "PercentSampling": 100.0,
        "PerformedProcedureStepStartTime": "163246.328000",
        "PhotometricInterpretation": "MONOCHROME2",
        "PixelBandwidth": 1905.0,
        "PixelRepresentation": 0,
        "PixelSpacing": [
          4.0,
          4.0
        ],
        "PositionReferenceIndicator": "",
        "ProtocolName": "ep2d_bold_ad_rest",
        "RepetitionTime": 2500.0,
        "Rows": 384,
        "SAR": 0.14192723919662,
        "SamplesPerPixel": 1,
        "ScanOptions": "FS",
        "ScanningSequence": "EP",
        "SequenceName": "*epfid2d1_64",
        "SequenceVariant": "SK",
        "SeriesDescription": "ep2d_bold_ad_rest",
        "SeriesNumber": 9,
        "SeriesTime": "171818.875000",
        "SliceLocation": -38.621577237173,
        "SliceThickness": 4.0,
        "SmallestImagePixelValue": 0,
        "SoftwareVersions": "syngo MR B17",
        "SpacingBetweenSlices": 4.0000014896331,
        "SpecificCharacterSet": "ISO_IR 100",
        "StudyID": "1",
        "StudyTime": "163246.281000",
        "TransmitCoilName": "Body",
        "VariableFlipAngleFlag": "N",
        "WindowCenterWidthExplanation": "Algo1",
        "dBdt": 0.0
      },
      "slices": {}
    },
    "modality": "bold",
    "subject_id": "CTS226",
    "task_id": "restfixationadaptive",
    "time": {
      "samples": {
        "AcquisitionNumber": [
          1,
          2,
          3,
          4,
          5,
          6,
          7,
          8,
          9,
          10,
          11,
          12,
          13,
          14,
          15,
          16,
          17,
          18,
          19,
          20,
          21,
          22,
          23,
          24,
          25,
          26,
          27,
          28,
          29,
          30,
          31,
          32,
          33,
          34,
          35,
          36,
          37,
          38,
          39,
          40,
          41,
          42,
          43,
          44,
          45,
          46,
          47,
          48,
          49,
          50,
          51,
          52,
          53,
          54,
          55,
          56,
          57,
          58,
          59,
          60,
          61,
          62,
          63,
          64,
          65,
          66,
          67,
          68,
          69,
          70,
          71,
          72,
          73,
          74,
          75,
          76,
          77,
          78,
          79,
          80,
          81,
          82,
          83,
          84,
          85,
          86,
          87,
          88,
          89,
          90,
          91,
          92,
          93,
          94,
          95,
          96,
          97,
          98,
          99,
          100,
          101,
          102,
          103,
          104,
          105,
          106,
          107,
          108,
          109,
          110,
          111,
          112,
          113,
          114,
          115,
          116,
          117,
          118,
          119,
          120,
          121,
          122,
          123,
          124,
          125,
          126,
          127,
          128,
          129,
          130,
          131,
          132,
          133,
          134,
          135,
          136,
          137,
          138,
          139,
          140,
          141,
          142,
          143,
          144,
          145,
          146,
          147,
          148,
          149,
          150,
          151,
          152,
          153,
          154,
          155,
          156,
          157,
          158,
          159,
          160,
          161,
          162,
          163,
          164
        ],
        "AcquisitionTime": [
          "171817.132500",
          "171819.642500",
          "171822.152500",
          "171824.662500",
          "171827.172500",
          "171829.682500",
          "171832.192500",
          "171834.702500",
          "171837.212500",
          "171839.722500",
          "171842.232500",
          "171844.742500",
          "171847.252500",
          "171849.762500",
          "171852.272500",
          "171854.782500",
          "171857.292500",
          "171859.802500",
          "171902.312500",
          "171904.822500",
          "171907.332500",
          "171909.842500",
          "171912.352500",
          "171914.862500",
          "171917.372500",
          "171919.882500",
          "171922.392500",
          "171924.902500",
          "171927.412500",
          "171929.922500",
          "171932.432500",
          "171934.942500",
          "171937.452500",
          "171939.962500",
          "171942.472500",
          "171944.982500",
          "171947.492500",
          "171950.002500",
          "171952.512500",
          "171955.022500",
          "171957.532500",
          "172000.042500",
          "172002.552500",
          "172005.062500",
          "172007.575000",
          "172010.085000",
          "172012.595000",
          "172015.105000",
          "172017.615000",
          "172020.125000",
          "172022.635000",
          "172025.145000",
          "172027.655000",
          "172030.165000",
          "172032.675000",
          "172035.185000",
          "172037.695000",
          "172040.205000",
          "172042.715000",
          "172045.225000",
          "172047.735000",
          "172050.245000",
          "172052.755000",
          "172055.265000",
          "172057.775000",
          "172100.285000",
          "172102.795000",
          "172105.305000",
          "172107.815000",
          "172110.325000",
          "172112.835000",
          "172115.345000",
          "172117.855000",
          "172120.365000",
          "172122.875000",
          "172125.385000",
          "172127.895000",
          "172130.405000",
          "172132.915000",
          "172135.425000",
          "172137.935000",
          "172140.445000",
          "172142.955000",
          "172145.465000",
          "172147.975000",
          "172150.485000",
          "172152.995000",
          "172155.505000",
          "172158.015000",
          "172200.525000",
          "172203.035000",
          "172205.545000",
          "172208.055000",
          "172210.565000",
          "172213.075000",
          "172215.585000",
          "172218.095000",
          "172220.605000",
          "172223.115000",
          "172225.625000",
          "172228.135000",
          "172230.645000",
          "172233.155000",
          "172235.665000",
          "172238.175000",
          "172240.685000",
          "172243.197500",
          "172245.707500",
          "172248.217500",
          "172250.727500",
          "172253.237500",
          "172255.747500",
          "172258.257500",
          "172300.767500",
          "172303.277500",
          "172305.787500",
          "172308.297500",
          "172310.807500",
          "172313.317500",
          "172315.827500",
          "172318.337500",
          "172320.847500",
          "172323.357500",
          "172325.867500",
          "172328.377500",
          "172330.887500",
          "172333.397500",
          "172335.907500",
          "172338.417500",
          "172340.927500",
          "172343.437500",
          "172345.947500",
          "172348.457500",
          "172350.967500",
          "172353.477500",
          "172355.987500",
          "172358.497500",
          "172401.007500",
          "172403.517500",
          "172406.027500",
          "172408.537500",
          "172411.047500",
          "172413.557500",
          "172416.067500",
          "172418.577500",
          "172421.087500",
          "172423.597500",
          "172426.107500",
          "172428.617500",
          "172431.127500",
          "172433.637500",
          "172436.147500",
          "172438.657500",
          "172441.167500",
          "172443.677500",
          "172446.187500",
          "172448.697500",
          "172451.207500",
          "172453.717500",
          "172456.227500",
          "172458.737500",
          "172501.247500",
          "172503.757500",
          "172506.267500"
        ],
        "ContentTime": [
          "171818.875000",
          "171821.375000",
          "171823.875000",
          "171826.375000",
          "171828.875000",
          "171831.375000",
          "171833.875000",
          "171836.375000",
          "171838.875000",
          "171841.375000",
          "171843.875000",
          "171846.375000",
          "171848.875000",
          "171851.375000",
          "171853.875000",
          "171856.375000",
          "171858.875000",
          "171901.375000",
          "171903.875000",
          "171906.375000",
          "171908.875000",
          "171911.375000",
          "171913.875000",
          "171916.375000",
          "171918.875000",
          "171921.375000",
          "171923.875000",
          "171926.375000",
          "171928.875000",
          "171931.375000",
          "171933.875000",
          "171936.375000",
          "171938.875000",
          "171941.375000",
          "171943.875000",
          "171946.375000",
          "171948.875000",
          "171951.375000",
          "171953.875000",
          "171956.375000",
          "171958.875000",
          "172001.375000",
          "172003.875000",
          "172006.375000",
          "172008.875000",
          "172011.375000",
          "172013.875000",
          "172016.375000",
          "172018.875000",
          "172021.375000",
          "172023.875000",
          "172026.375000",
          "172028.875000",
          "172031.375000",
          "172033.875000",
          "172036.375000",
          "172038.875000",
          "172041.375000",
          "172043.875000",
          "172046.375000",
          "172048.875000",
          "172051.375000",
          "172053.875000",
          "172056.375000",
          "172058.875000",
          "172101.375000",
          "172103.875000",
          "172106.375000",
          "172108.875000",
          "172111.375000",
          "172113.875000",
          "172116.375000",
          "172118.875000",
          "172121.375000",
          "172123.875000",
          "172126.375000",
          "172128.875000",
          "172131.375000",
          "172133.875000",
          "172136.375000",
          "172138.875000",
          "172141.375000",
          "172143.875000",
          "172146.375000",
          "172148.875000",
          "172151.375000",
          "172153.875000",
          "172156.375000",
          "172158.875000",
          "172201.375000",
          "172203.875000",
          "172206.375000",
          "172208.875000",
          "172211.375000",
          "172213.875000",
          "172216.375000",
          "172218.875000",
          "172221.375000",
          "172223.875000",
          "172226.375000",
          "172228.875000",
          "172231.375000",
          "172233.875000",
          "172236.375000",
          "172238.875000",
          "172241.375000",
          "172243.875000",
          "172246.375000",
          "172248.875000",
          "172251.375000",
          "172253.875000",
          "172256.375000",
          "172258.875000",
          "172301.375000",
          "172303.875000",
          "172306.375000",
          "172308.875000",
          "172311.375000",
          "172313.875000",
          "172316.375000",
          "172318.875000",
          "172321.375000",
          "172323.875000",
          "172326.375000",
          "172328.875000",
          "172331.375000",
          "172333.875000",
          "172336.375000",
          "172338.875000",
          "172341.375000",
          "172343.875000",
          "172346.375000",
          "172348.875000",
          "172351.375000",
          "172353.875000",
          "172356.375000",
          "172358.875000",
          "172401.375000",
          "172403.875000",
          "172406.375000",
          "172408.875000",
          "172411.375000",
          "172413.875000",
          "172416.375000",
          "172418.875000",
          "172421.375000",
          "172423.875000",
          "172426.375000",
          "172428.875000",
          "172431.375000",
          "172433.875000",
          "172436.375000",
          "172438.875000",
          "172441.375000",
          "172443.875000",
          "172446.375000",
          "172448.875000",
          "172451.375000",
          "172453.875000",
          "172456.375000",
          "172458.875000",
          "172501.375000",
          "172503.875000",
          "172505.968000"
        ],
        "InstanceCreationTime": [
          "171818.875000",
          "171821.375000",
          "171823.875000",
          "171826.375000",
          "171828.875000",
          "171831.375000",
          "171833.875000",
          "171836.375000",
          "171838.875000",
          "171841.375000",
          "171843.875000",
          "171846.375000",
          "171848.875000",
          "171851.375000",
          "171853.875000",
          "171856.375000",
          "171858.875000",
          "171901.375000",
          "171903.875000",
          "171906.375000",
          "171908.875000",
          "171911.375000",
          "171913.875000",
          "171916.375000",
          "171918.875000",
          "171921.375000",
          "171923.875000",
          "171926.375000",
          "171928.875000",
          "171931.375000",
          "171933.875000",
          "171936.375000",
          "171938.875000",
          "171941.375000",
          "171943.875000",
          "171946.375000",
          "171948.875000",
          "171951.375000",
          "171953.875000",
          "171956.375000",
          "171958.875000",
          "172001.375000",
          "172003.875000",
          "172006.375000",
          "172008.875000",
          "172011.375000",
          "172013.875000",
          "172016.375000",
          "172018.875000",
          "172021.375000",
          "172023.875000",
          "172026.375000",
          "172028.875000",
          "172031.375000",
          "172033.875000",
          "172036.375000",
          "172038.875000",
          "172041.375000",
          "172043.875000",
          "172046.375000",
          "172048.875000",
          "172051.375000",
          "172053.875000",
          "172056.375000",
          "172058.875000",
          "172101.375000",
          "172103.875000",
          "172106.375000",
          "172108.875000",
          "172111.375000",
          "172113.875000",
          "172116.375000",
          "172118.875000",
          "172121.375000",
          "172123.875000",
          "172126.375000",
          "172128.875000",
          "172131.375000",
          "172133.875000",
          "172136.375000",
          "172138.875000",
          "172141.375000",
          "172143.875000",
          "172146.375000",
          "172148.875000",
          "172151.375000",
          "172153.875000",
          "172156.375000",
          "172158.875000",
          "172201.375000",
          "172203.875000",
          "172206.375000",
          "172208.875000",
          "172211.375000",
          "172213.875000",
          "172216.375000",
          "172218.875000",
          "172221.375000",
          "172223.875000",
          "172226.375000",
          "172228.875000",
          "172231.375000",
          "172233.875000",
          "172236.375000",
          "172238.875000",
          "172241.375000",
          "172243.875000",
          "172246.375000",
          "172248.875000",
          "172251.375000",
          "172253.875000",
          "172256.375000",
          "172258.875000",
          "172301.375000",
          "172303.875000",
          "172306.375000",
          "172308.875000",
          "172311.375000",
          "172313.875000",
          "172316.375000",
          "172318.875000",
          "172321.375000",
          "172323.875000",
          "172326.375000",
          "172328.875000",
          "172331.375000",
          "172333.875000",
          "172336.375000",
          "172338.875000",
          "172341.375000",
          "172343.875000",
          "172346.375000",
          "172348.875000",
          "172351.375000",
          "172353.875000",
          "172356.375000",
          "172358.875000",
          "172401.375000",
          "172403.875000",
          "172406.375000",
          "172408.875000",
          "172411.375000",
          "172413.875000",
          "172416.375000",
          "172418.875000",
          "172421.375000",
          "172423.875000",
          "172426.375000",
          "172428.875000",
          "172431.375000",
          "172433.875000",
          "172436.375000",
          "172438.875000",
          "172441.375000",
          "172443.875000",
          "172446.375000",
          "172448.875000",
          "172451.375000",
          "172453.875000",
          "172456.375000",
          "172458.875000",
          "172501.375000",
          "172503.875000",
          "172505.968000"
        ],
        "InstanceNumber": [
          1,
          2,
          3,
          4,
          5,
          6,
          7,
          8,
          9,
          10,
          11,
          12,
          13,
          14,
          15,
          16,
          17,
          18,
          19,
          20,
          21,
          22,
          23,
          24,
          25,
          26,
          27,
          28,
          29,
          30,
          31,
          32,
          33,
          34,
          35,
          36,
          37,
          38,
          39,
          40,
          41,
          42,
          43,
          44,
          45,
          46,
          47,
          48,
          49,
          50,
          51,
          52,
          53,
          54,
          55,
          56,
          57,
          58,
          59,
          60,
          61,
          62,
          63,
          64,
          65,
          66,
          67,
          68,
          69,
          70,
          71,
          72,
          73,
          74,
          75,
          76,
          77,
          78,
          79,
          80,
          81,
          82,
          83,
          84,
          85,
          86,
          87,
          88,
          89,
          90,
          91,
          92,
          93,
          94,
          95,
          96,
          97,
          98,
          99,
          100,
          101,
          102,
          103,
          104,
          105,
          106,
          107,
          108,
          109,
          110,
          111,
          112,
          113,
          114,
          115,
          116,
          117,
          118,
          119,
          120,
          121,
          122,
          123,
          124,
          125,
          126,
          127,
          128,
          129,
          130,
          131,
          132,
          133,
          134,
          135,
          136,
          137,
          138,
          139,
          140,
          141,
          142,
          143,
          144,
          145,
          146,
          147,
          148,
          149,
          150,
          151,
          152,
          153,
          154,
          155,
          156,
          157,
          158,
          159,
          160,
          161,
          162,
          163,
          164
        ],
        "LargestImagePixelValue": [
          1712,
          1690,
          1490,
          1418,
          1363,
          1622,
          1558,
          1634,
          1525,
          1713,
          1662,
          1544,
          1505,
          1409,
          2265,
          1393,
          1575,
          2036,
          1795,
          1932,
          1446,
          1526,
          1467,
          1665,
          1632,
          1531,
          1380,
          1462,
          1592,
          1389,
          1391,
          1466,
          1378,
          1435,
          1404,
          1396,
          1416,
          1447,
          1404,
          1547,
          2427,
          1600,
          2126,
          1469,
          1441,
          1539,
          1420,
          2326,
          1654,
          2308,
          1466,
          1795,
          1911,
          1416,
          1450,
          1527,
          1417,
          1454,
          1595,
          1275,
          1412,
          1683,
          2021,
          1650,
          1981,
          1722,
          1414,
          1340,
          1776,
          1544,
          1363,
          1548,
          1616,
          1407,
          1570,
          1822,
          1535,
          1281,
          1378,
          2385,
          2122,
          1664,
          1733,
          1551,
          1730,
          1843,
          1575,
          1981,
          2056,
          1382,
          1361,
          1868,
          1281,
          1777,
          1486,
          1446,
          1876,
          1532,
          1552,
          1619,
          1944,
          1873,
          1462,
          1486,
          1883,
          2095,
          1432,
          1877,
          1925,
          1545,
          2074,
          1616,
          1688,
          1588,
          1405,
          1423,
          1414,
          1439,
          1480,
          1766,
          1695,
          1629,
          1416,
          1597,
          1758,
          2112,
          1722,
          1544,
          1432,
          1464,
          1457,
          1372,
          1422,
          1402,
          1333,
          1431,
          1502,
          1614,
          1431,
          2115,
          2333,
          2083,
          1821,
          1440,
          1570,
          1684,
          1384,
          1862,
          2001,
          1674,
          1592,
          1578,
          1682,
          1407,
          1455,
          1364,
          1398,
          1410,
          1419,
          1442,
          1505,
          1575,
          1386,
          2030
        ],
        "WindowCenter": [
          652.0,
          650.0,
          638.0,
          651.0,
          636.0,
          656.0,
          650.0,
          640.0,
          652.0,
          641.0,
          650.0,
          647.0,
          647.0,
          634.0,
          645.0,
          630.0,
          639.0,
          641.0,
          653.0,
          651.0,
          613.0,
          654.0,
          648.0,
          647.0,
          645.0,
          645.0,
          642.0,
          624.0,
          652.0,
          649.0,
          651.0,
          651.0,
          652.0,
          652.0,
          653.0,
          653.0,
          654.0,
          653.0,
          629.0,
          653.0,
          639.0,
          612.0,
          641.0,
          642.0,
          650.0,
          644.0,
          636.0,
          621.0,
          643.0,
          620.0,
          632.0,
          656.0,
          652.0,
          641.0,
          651.0,
          650.0,
          651.0,
          653.0,
          651.0,
          644.0,
          634.0,
          634.0,
          625.0,
          626.0,
          642.0,
          645.0,
          635.0,
          619.0,
          641.0,
          654.0,
          647.0,
          653.0,
          653.0,
          636.0,
          651.0,
          653.0,
          646.0,
          632.0,
          628.0,
          640.0,
          633.0,
          626.0,
          631.0,
          621.0,
          648.0,
          643.0,
          647.0,
          644.0,
          645.0,
          639.0,
          634.0,
          642.0,
          623.0,
          657.0,
          651.0,
          643.0,
          645.0,
          654.0,
          647.0,
          654.0,
          651.0,
          651.0,
          630.0,
          652.0,
          643.0,
          649.0,
          620.0,
          638.0,
          633.0,
          647.0,
          649.0,
          654.0,
          650.0,
          646.0,
          648.0,
          650.0,
          652.0,
          628.0,
          628.0,
          651.0,
          655.0,
          652.0,
          617.0,
          653.0,
          641.0,
          652.0,
          643.0,
          646.0,
          651.0,
          652.0,
          651.0,
          651.0,
          653.0,
          656.0,
          642.0,
          655.0,
          653.0,
          647.0,
          651.0,
          645.0,
          627.0,
          645.0,
          646.0,
          622.0,
          649.0,
          626.0,
          609.0,
          644.0,
          638.0,
          626.0,
