{
  "aor": 0.0034475609756097563,
  "aqi": 0.005544077560975609,
  "bids_meta": {
    "AcquisitionMatrixPE": 64,
    "AcquisitionNumber": 1,
    "AcquisitionTime": "09:41:7.152500",
    "BandwidthPerPixelPhaseEncode": 26.483,
    "BaseResolution": 64,
    "BodyPartExamined": "HEAD",
    "CogAtlasID": "TODO",
    "ConversionSoftware": "dcm2niix",
    "ConversionSoftwareVersion": "v1.0.20171017 GCC6.3.0",
    "DerivedVendorReportedEchoSpacing": 0.000590001,
    "DeviceSerialNumber": "35177",
    "DwellTime": 4.1e-06,
    "EchoTime": 0.027,
    "EffectiveEchoSpacing": 0.000590001,
    "FlipAngle": 90,
    "ImageOrientationPatientDICOM": [
      0.997654,
      -0.0509465,
      -0.0457332,
      0.0608272,
      0.966174,
      0.250613
    ],
    "ImageType": [
      "ORIGINAL",
      "PRIMARY",
      "M",
      "ND",
      "NORM",
      "MOSAIC"
    ],
    "InPlanePhaseEncodingDirectionDICOM": "COL",
    "InstitutionAddress": "Scott_Ave._4525_St._Louis_MO_US_63110",
    "InstitutionName": "Washington_University",
    "InstitutionalDepartmentName": "Department",
    "MRAcquisitionType": "2D",
    "MagneticFieldStrength": 3,
    "Manufacturer": "Siemens",
    "ManufacturersModelName": "TrioTim",
    "Modality": "MR",
    "PartialFourier": 1,
    "PatientPosition": "HFS",
    "PercentPhaseFOV": 100,
    "PhaseEncodingDirection": "j-",
    "PhaseEncodingSteps": 64,
    "PhaseResolution": 1,
    "PixelBandwidth": 1905,
    "ProcedureStepDescription": "head_Dosenbach_MSC",
    "ProtocolName": "ep2d_bold_noad_rest",
    "PulseSequenceDetails": "%SiemensSeq%_ep2d_bold",
    "ReceiveCoilName": "HeadMatrix",
    "ReconMatrixPE": 64,
    "RepetitionTime": 2.5,
    "SAR": 0.150046,
    "ScanOptions": "FS",
    "ScanningSequence": "EP",
    "SequenceName": "_epfid2d1_64",
    "SequenceVariant": "SK",
    "SeriesDescription": "ep2d_bold_noad_rest",
    "SeriesNumber": 8,
    "ShimSetting": [
      -261,
      -19693,
      7988,
      384,
      112,
      -946,
      773,
      45
    ],
    "SliceThickness": 4,
    "SliceTiming": [
      1.255,
      0,
      1.3325,
      0.0775,
      1.4125,
      0.1575,
      1.49,
      0.235,
      1.5675,
      0.315,
      1.6475,
      0.3925,
      1.725,
      0.47,
      1.805,
      0.55,
      1.8825,
      0.6275,
      1.96,
      0.705,
      2.04,
      0.785,
      2.1175,
      0.8625,
      2.195,
      0.9425,
      2.275,
      1.02,
      2.3525,
      1.0975,
      2.4325,
      1.1775
    ],
    "SoftwareVersions": "syngo_MR_B17",
    "SpacingBetweenSlices": 4,
    "StationName": "MRC35177",
    "TaskName": "restfixationfixed",
    "TotalReadoutTime": 0.0371701,
    "TxRefAmp": 341.242,
    "dataset": "ds000256",
    "dcmmeta_affine": [
      [
        -3.990614891052246,
        0.2433089166879654,
        -0.12567339837551117,
        108.6343002319336
      ],
      [
        0.20378591120243073,
        3.8646979331970215,
        1.0112266540527344,
        -151.06729125976562
      ],
      [
        -0.18293264508247375,
        -1.0024518966674805,
        3.8680241107940674,
        15.90594482421875
      ],
      [
        0.0,
        0.0,
        0.0,
        1.0
      ]
    ],
    "dcmmeta_reorient_transform": [
      [
        0.0,
        -1.0,
        0.0,
        63.0
      ],
      [
        1.0,
        0.0,
        0.0,
        0.0
      ],
      [
        0.0,
        0.0,
        1.0,
        0.0
      ],
      [
        0.0,
        0.0,
        0.0,
        1.0
      ]
    ],
    "dcmmeta_shape": [
      64,
      64,
      32,
      164
    ],
    "dcmmeta_slice_dim": 2,
    "dcmmeta_version": 0.6,
    "global": {
      "const": {
        "AccessionNumber": ".",
        "AcquisitionMatrix": [
          64,
          0,
          0,
          64
        ],
        "AngioFlag": "N",
        "BitsAllocated": 16,
        "BitsStored": 12,
        "BodyPartExamined": "HEAD",
        "Columns": 384,
        "DeidentificationMethodCodeSequence": [
          {
            "CodeMeaning": "XNAT Edit Script",
            "CodeValue": "625500",
            "CodingSchemeDesignator": "XNAT",
            "CodingSchemeVersion": "0.1"
          }
        ],
        "EchoNumbers": 1,
        "EchoTime": 27.0,
        "EchoTrainLength": 1,
        "FlipAngle": 90.0,
        "HighBit": 11,
        "ImageOrientationPatient": [
          0.99765371467228,
          -0.0509464785954,
          -0.0457331599535,
          0.06082723034402,
          0.9661745104294,
          0.25061297541265
        ],
        "ImagePositionPatient": [
          -801.39056914166,
          -678.15462895209,
          -178.37160688776
        ],
        "ImageType": [
          "ORIGINAL",
          "PRIMARY",
          "M",
          "ND",
          "NORM",
          "MOSAIC"
        ],
        "ImagedNucleus": "1H",
        "ImagingFrequency": 123.256195,
        "InPlanePhaseEncodingDirection": "COL",
        "MRAcquisitionType": "2D",
        "MagneticFieldStrength": 3.0,
        "Manufacturer": "SIEMENS",
        "ManufacturerModelName": "TrioTim",
        "Modality": "MR",
        "NumberOfAverages": 1.0,
        "NumberOfPhaseEncodingSteps": 64,
        "PercentPhaseFieldOfView": 100.0,
        "PercentSampling": 100.0,
        "PerformedProcedureStepStartTime": "091214.406000",
        "PhotometricInterpretation": "MONOCHROME2",
        "PixelBandwidth": 1905.0,
        "PixelRepresentation": 0,
        "PixelSpacing": [
          4.0,
          4.0
        ],
        "PositionReferenceIndicator": "",
        "ProtocolName": "ep2d_bold_noad_rest",
        "RepetitionTime": 2500.0,
        "Rows": 384,
        "SAR": 0.15004633395047,
        "SamplesPerPixel": 1,
        "ScanOptions": "FS",
        "ScanningSequence": "EP",
        "SequenceName": "*epfid2d1_64",
        "SequenceVariant": "SK",
        "SeriesDescription": "ep2d_bold_noad_rest",
        "SeriesNumber": 8,
        "SeriesTime": "094109.640000",
        "SliceLocation": -26.22279552597,
        "SliceThickness": 4.0,
        "SmallestImagePixelValue": 0,
        "SoftwareVersions": "syngo MR B17",
        "SpacingBetweenSlices": 3.9999980657859,
        "SpecificCharacterSet": "ISO_IR 100",
        "StudyID": "1",
        "StudyTime": "091214.375000",
        "TransmitCoilName": "Body",
        "VariableFlipAngleFlag": "N",
        "WindowCenterWidthExplanation": "Algo1",
        "dBdt": 0.0
      },
      "slices": {}
    },
    "modality": "bold",
    "subject_id": "CTS238",
    "task_id": "restfixationfixed",
    "time": {
      "samples": {
        "AcquisitionNumber": [
          1,
          2,
          3,
          4,
          5,
          6,
          7,
          8,
          9,
          10,
          11,
          12,
          13,
          14,
          15,
          16,
          17,
          18,
          19,
          20,
          21,
          22,
          23,
          24,
          25,
          26,
          27,
          28,
          29,
          30,
          31,
          32,
          33,
          34,
          35,
          36,
          37,
          38,
          39,
          40,
          41,
          42,
          43,
          44,
          45,
          46,
          47,
          48,
          49,
          50,
          51,
          52,
          53,
          54,
          55,
          56,
          57,
          58,
          59,
          60,
          61,
          62,
          63,
          64,
          65,
          66,
          67,
          68,
          69,
          70,
          71,
          72,
          73,
          74,
          75,
          76,
          77,
          78,
          79,
          80,
          81,
          82,
          83,
          84,
          85,
          86,
          87,
          88,
          89,
          90,
          91,
          92,
          93,
          94,
          95,
          96,
          97,
          98,
          99,
          100,
          101,
          102,
          103,
          104,
          105,
          106,
          107,
          108,
          109,
          110,
          111,
          112,
          113,
          114,
          115,
          116,
          117,
          118,
          119,
          120,
          121,
          122,
          123,
          124,
          125,
          126,
          127,
          128,
          129,
          130,
          131,
          132,
          133,
          134,
          135,
          136,
          137,
          138,
          139,
          140,
          141,
          142,
          143,
          144,
          145,
          146,
          147,
          148,
          149,
          150,
          151,
          152,
          153,
          154,
          155,
          156,
          157,
          158,
          159,
          160,
          161,
          162,
          163,
          164
        ],
        "AcquisitionTime": [
          "094107.152500",
          "094109.662500",
          "094112.172500",
          "094114.682500",
          "094117.192500",
          "094119.702500",
          "094122.212500",
          "094124.722500",
          "094127.232500",
          "094129.742500",
          "094132.252500",
          "094134.762500",
          "094137.272500",
          "094139.782500",
          "094142.292500",
          "094144.802500",
          "094147.312500",
          "094149.822500",
          "094152.332500",
          "094154.842500",
          "094157.352500",
          "094159.862500",
          "094202.372500",
          "094204.882500",
          "094207.392500",
          "094209.902500",
          "094212.412500",
          "094214.922500",
          "094217.432500",
          "094219.942500",
          "094222.452500",
          "094224.962500",
          "094227.472500",
          "094229.985000",
          "094232.495000",
          "094235.005000",
          "094237.515000",
          "094240.025000",
          "094242.535000",
          "094245.045000",
          "094247.555000",
          "094250.065000",
          "094252.575000",
          "094255.085000",
          "094257.595000",
          "094300.105000",
          "094302.615000",
          "094305.125000",
          "094307.635000",
          "094310.145000",
          "094312.655000",
          "094315.165000",
          "094317.675000",
          "094320.185000",
          "094322.695000",
          "094325.205000",
          "094327.715000",
          "094330.225000",
          "094332.735000",
          "094335.245000",
          "094337.755000",
          "094340.265000",
          "094342.775000",
          "094345.285000",
          "094347.795000",
          "094350.305000",
          "094352.815000",
          "094355.325000",
          "094357.835000",
          "094400.345000",
          "094402.855000",
          "094405.365000",
          "094407.875000",
          "094410.385000",
          "094412.895000",
          "094415.405000",
          "094417.915000",
          "094420.425000",
          "094422.935000",
          "094425.445000",
          "094427.955000",
          "094430.465000",
          "094432.975000",
          "094435.485000",
          "094437.995000",
          "094440.505000",
          "094443.015000",
          "094445.525000",
          "094448.035000",
          "094450.545000",
          "094453.055000",
          "094455.565000",
          "094458.075000",
          "094500.585000",
          "094503.095000",
          "094505.607500",
          "094508.117500",
          "094510.627500",
          "094513.137500",
          "094515.647500",
          "094518.157500",
          "094520.667500",
          "094523.177500",
          "094525.687500",
          "094528.197500",
          "094530.707500",
          "094533.217500",
          "094535.727500",
          "094538.237500",
          "094540.747500",
          "094543.257500",
          "094545.767500",
          "094548.277500",
          "094550.787500",
          "094553.297500",
          "094555.807500",
          "094558.317500",
          "094600.827500",
          "094603.337500",
          "094605.847500",
          "094608.357500",
          "094610.867500",
          "094613.377500",
          "094615.887500",
          "094618.397500",
          "094620.907500",
          "094623.417500",
          "094625.927500",
          "094628.437500",
          "094630.947500",
          "094633.457500",
          "094635.967500",
          "094638.477500",
          "094640.987500",
          "094643.497500",
          "094646.007500",
          "094648.517500",
          "094651.027500",
          "094653.537500",
          "094656.047500",
          "094658.557500",
          "094701.067500",
          "094703.577500",
          "094706.087500",
          "094708.597500",
          "094711.107500",
          "094713.617500",
          "094716.127500",
          "094718.637500",
          "094721.147500",
          "094723.657500",
          "094726.167500",
          "094728.677500",
          "094731.187500",
          "094733.697500",
          "094736.207500",
          "094738.717500",
          "094741.230000",
          "094743.740000",
          "094746.250000",
          "094748.760000",
          "094751.270000",
          "094753.780000",
          "094756.290000"
        ],
        "ContentTime": [
          "094109.640000",
          "094112.140000",
          "094114.640000",
          "094117.140000",
          "094119.640000",
          "094122.140000",
          "094124.640000",
          "094127.140000",
          "094129.640000",
          "094132.140000",
          "094134.640000",
          "094137.140000",
          "094139.640000",
          "094142.140000",
          "094144.640000",
          "094147.140000",
          "094149.640000",
          "094152.140000",
          "094154.640000",
          "094157.140000",
          "094159.640000",
          "094202.140000",
          "094204.640000",
          "094207.140000",
          "094209.640000",
          "094212.140000",
          "094214.640000",
          "094217.140000",
          "094219.640000",
          "094222.140000",
          "094224.640000",
          "094227.140000",
          "094229.640000",
          "094232.140000",
          "094234.640000",
          "094237.140000",
          "094239.640000",
          "094242.140000",
          "094244.640000",
          "094247.140000",
          "094249.640000",
          "094252.140000",
          "094254.640000",
          "094257.140000",
          "094259.640000",
          "094302.140000",
          "094304.640000",
          "094307.140000",
          "094309.640000",
          "094312.140000",
          "094314.640000",
          "094317.140000",
          "094319.640000",
          "094322.140000",
          "094324.640000",
          "094327.140000",
          "094329.640000",
          "094332.140000",
          "094334.640000",
          "094337.140000",
          "094339.640000",
          "094342.140000",
          "094344.640000",
          "094347.140000",
          "094349.640000",
          "094352.140000",
          "094354.640000",
          "094357.140000",
          "094359.640000",
          "094402.140000",
          "094404.640000",
          "094407.140000",
          "094409.640000",
          "094412.140000",
          "094414.640000",
          "094417.140000",
          "094419.640000",
          "094422.140000",
          "094424.640000",
          "094427.140000",
          "094429.640000",
          "094432.140000",
          "094434.640000",
          "094437.140000",
          "094439.640000",
          "094442.140000",
          "094444.640000",
          "094447.140000",
          "094449.640000",
          "094452.140000",
          "094454.640000",
          "094457.140000",
          "094459.640000",
          "094502.140000",
          "094504.640000",
          "094507.140000",
          "094509.640000",
          "094512.140000",
          "094514.640000",
          "094517.140000",
          "094519.640000",
          "094522.140000",
          "094524.640000",
          "094527.140000",
          "094529.640000",
          "094532.140000",
          "094534.640000",
          "094537.140000",
          "094539.640000",
          "094542.140000",
          "094544.640000",
          "094547.140000",
          "094549.640000",
          "094552.140000",
          "094554.640000",
          "094557.140000",
          "094559.640000",
          "094602.140000",
          "094604.640000",
          "094607.140000",
          "094609.640000",
          "094612.140000",
          "094614.640000",
          "094617.140000",
          "094619.640000",
          "094622.140000",
          "094624.640000",
          "094627.140000",
          "094629.640000",
          "094632.140000",
          "094634.640000",
          "094637.140000",
          "094639.640000",
          "094642.140000",
          "094644.640000",
          "094647.140000",
          "094649.640000",
          "094652.140000",
          "094654.640000",
          "094657.140000",
          "094659.640000",
          "094702.140000",
          "094704.640000",
          "094707.140000",
          "094709.640000",
          "094712.140000",
          "094714.640000",
          "094717.140000",
          "094719.640000",
          "094722.140000",
          "094724.640000",
          "094727.140000",
          "094729.640000",
          "094732.140000",
          "094734.640000",
          "094737.140000",
          "094739.640000",
          "094742.140000",
          "094744.640000",
          "094747.140000",
          "094749.640000",
          "094752.140000",
          "094754.640000",
          "094756.656000"
        ],
        "InstanceCreationTime": [
          "094109.640000",
          "094112.140000",
          "094114.640000",
          "094117.140000",
          "094119.640000",
          "094122.140000",
          "094124.640000",
          "094127.140000",
          "094129.640000",
          "094132.140000",
          "094134.640000",
          "094137.140000",
          "094139.640000",
          "094142.140000",
          "094144.640000",
          "094147.140000",
          "094149.640000",
          "094152.140000",
          "094154.640000",
          "094157.140000",
          "094159.640000",
          "094202.140000",
          "094204.640000",
          "094207.140000",
          "094209.640000",
          "094212.140000",
          "094214.640000",
          "094217.140000",
          "094219.640000",
          "094222.140000",
          "094224.640000",
          "094227.140000",
          "094229.640000",
          "094232.140000",
          "094234.640000",
          "094237.140000",
          "094239.640000",
          "094242.140000",
          "094244.640000",
          "094247.140000",
          "094249.640000",
          "094252.140000",
          "094254.640000",
          "094257.140000",
          "094259.640000",
          "094302.140000",
          "094304.640000",
          "094307.140000",
          "094309.640000",
          "094312.140000",
          "094314.640000",
          "094317.140000",
          "094319.640000",
          "094322.140000",
          "094324.640000",
          "094327.140000",
          "094329.640000",
          "094332.140000",
          "094334.640000",
          "094337.140000",
          "094339.640000",
          "094342.140000",
          "094344.640000",
          "094347.140000",
          "094349.640000",
          "094352.140000",
          "094354.640000",
          "094357.140000",
          "094359.640000",
          "094402.140000",
          "094404.640000",
          "094407.140000",
          "094409.640000",
          "094412.140000",
          "094414.640000",
          "094417.140000",
          "094419.640000",
          "094422.140000",
          "094424.640000",
          "094427.140000",
          "094429.640000",
          "094432.140000",
          "094434.640000",
          "094437.140000",
          "094439.640000",
          "094442.140000",
          "094444.640000",
          "094447.140000",
          "094449.640000",
          "094452.140000",
          "094454.640000",
          "094457.140000",
          "094459.640000",
          "094502.140000",
          "094504.640000",
          "094507.140000",
          "094509.640000",
          "094512.140000",
          "094514.640000",
          "094517.140000",
          "094519.640000",
          "094522.140000",
          "094524.640000",
          "094527.140000",
          "094529.640000",
          "094532.140000",
          "094534.640000",
          "094537.140000",
          "094539.640000",
          "094542.140000",
          "094544.640000",
          "094547.140000",
          "094549.640000",
          "094552.140000",
          "094554.640000",
          "094557.140000",
          "094559.640000",
          "094602.140000",
          "094604.640000",
          "094607.140000",
          "094609.640000",
          "094612.140000",
          "094614.640000",
          "094617.140000",
          "094619.640000",
          "094622.140000",
          "094624.640000",
          "094627.140000",
          "094629.640000",
          "094632.140000",
          "094634.640000",
          "094637.140000",
          "094639.640000",
          "094642.140000",
          "094644.640000",
          "094647.140000",
          "094649.640000",
          "094652.140000",
          "094654.640000",
          "094657.140000",
          "094659.640000",
          "094702.140000",
          "094704.640000",
          "094707.140000",
          "094709.640000",
          "094712.140000",
          "094714.640000",
          "094717.140000",
          "094719.640000",
          "094722.140000",
          "094724.640000",
          "094727.140000",
          "094729.640000",
          "094732.140000",
          "094734.640000",
          "094737.140000",
          "094739.640000",
          "094742.140000",
          "094744.640000",
          "094747.140000",
          "094749.640000",
          "094752.140000",
          "094754.640000",
          "094756.656000"
        ],
        "InstanceNumber": [
          1,
          2,
          3,
          4,
          5,
          6,
          7,
          8,
          9,
          10,
          11,
          12,
          13,
          14,
          15,
          16,
          17,
          18,
          19,
          20,
          21,
          22,
          23,
          24,
          25,
          26,
          27,
          28,
          29,
          30,
          31,
          32,
          33,
          34,
          35,
          36,
          37,
          38,
          39,
          40,
          41,
          42,
          43,
          44,
          45,
          46,
          47,
          48,
          49,
          50,
          51,
          52,
          53,
          54,
          55,
          56,
          57,
          58,
          59,
          60,
          61,
          62,
          63,
          64,
          65,
          66,
          67,
          68,
          69,
          70,
          71,
          72,
          73,
          74,
          75,
          76,
          77,
          78,
          79,
          80,
          81,
          82,
          83,
          84,
          85,
          86,
          87,
          88,
          89,
          90,
          91,
          92,
          93,
          94,
          95,
          96,
          97,
          98,
          99,
          100,
          101,
          102,
          103,
          104,
          105,
          106,
          107,
          108,
          109,
          110,
          111,
          112,
          113,
          114,
          115,
          116,
          117,
          118,
          119,
          120,
          121,
          122,
          123,
          124,
          125,
          126,
          127,
          128,
          129,
          130,
          131,
          132,
          133,
          134,
          135,
          136,
          137,
          138,
          139,
          140,
          141,
          142,
          143,
          144,
          145,
          146,
          147,
          148,
          149,
          150,
          151,
          152,
          153,
          154,
          155,
          156,
          157,
          158,
          159,
          160,
          161,
          162,
          163,
          164
        ],
        "LargestImagePixelValue": [
          1561,
          1544,
          1562,
          1581,
          1525,
          1588,
          1590,
          1609,
          1618,
          1585,
          1570,
          1583,
          1608,
          1618,
          1551,
          1544,
          1559,
          1541,
          1593,
          1539,
          1575,
          1561,
          1556,
          1594,
          1558,
          1550,
          1570,
          1549,
          1522,
          1591,
          1571,
          1589,
          1558,
          1558,
          1575,
          1576,
          1588,
          1537,
          1585,
          1552,
          1564,
          1589,
          1611,
          1569,
          1573,
          1593,
          1589,
          1564,
          1565,
          1593,
          1577,
          1590,
          1582,
          1567,
          1566,
          1558,
          1557,
          1482,
          1540,
          1566,
          1566,
          1496,
          1575,
          1543,
          1567,
          1576,
          1534,
          1522,
          1524,
          1565,
          1584,
          1509,
          1544,
          1536,
          1564,
          1513,
          1596,
          1519,
          1598,
          1531,
          1553,
          1576,
          1575,
          1552,
          1555,
          1555,
          1584,
          1527,
          1571,
          1574,
          1579,
          1597,
          1574,
          1571,
          1578,
          1578,
          1558,
          1548,
          1568,
          1572,
          1596,
          1571,
          1538,
          1608,
          1614,
          1561,
          1624,
          1584,
          1556,
          1584,
          1536,
          1569,
          1605,
          1545,
          1619,
          1595,
          1541,
          1522,
          1585,
          1509,
          1533,
          1594,
          1580,
          1585,
          1479,
          1511,
          1545,
          1565,
          1563,
          1573,
          1587,
          1579,
          1568,
          1570,
          1561,
          1552,
          1601,
          1576,
          1547,
          1572,
          1542,
          1517,
          1583,
          1471,
          1497,
          1512,
          1548,
          1519,
          1540,
          1561,
          1542,
          1498,
          1535,
          1563,
          1578,
          1539,
          1543,
          1566,
          1562,
          1514,
          1572,
          1527,
          1569,
          1558
        ],
        "WindowCenter": [
          646.0,
          643.0,
          645.0,
          645.0,
          644.0,
          644.0,
          644.0,
          645.0,
          645.0,
          644.0,
          645.0,
          645.0,
          645.0,
          645.0,
          645.0,
          644.0,
          645.0,
          645.0,
          644.0,
          645.0,
          644.0,
          644.0,
          643.0,
          643.0,
          646.0,
          645.0,
          646.0,
          645.0,
          644.0,
          646.0,
          645.0,
          645.0,
          644.0,
          645.0,
          644.0,
          645.0,
          644.0,
          645.0,
          645.0,
          643.0,
          643.0,
          645.0,
          644.0,
          644.0,
          644.0,
          643.0,
          644.0,
          644.0,
          645.0,
          644.0,
          645.0,
          645.0,
          645.0,
          645.0,
          644.0,
          645.0,
          646.0,
          644.0,
          644.0,
          646.0,
          645.0,
          641.0,
          648.0,
          644.0,
          643.0,
          644.0,
          645.0,
          645.0,
          646.0,
          645.0,
          647.0,
          645.0,
          644.0,
          645.0,
          645.0,
          645.0,
          645.0,
          645.0,
          644.0,
          643.0,
          645.0,
          645.0,
          643.0,
          641.0,
          641.0,
          643.0,
          644.0,
          646.0,
          645.0,
          645.0,
          644.0,
          645.0,
          644.0,
          645.0,
          645.0,
          644.0,
          644.0,
          644.0,
          645.0,
          644.0,
          646.0,
          644.0,
          643.0,
          644.0,
          645.0,
          644.0,
          644.0,
          644.0,
          644.0,
          644.0,
          644.0,
          644.0,
          646.0,
          644.0,
          645.0,
          645.0,
          645.0,
          644.0,
          646.0,
          642.0,
          643.0,
          645.0,
          643.0,
          643.0,
          642.0,
          644.0,
          646.0,
          646.0,
          645.0,
          644.0,
          645.0,
          644.0,
          643.0,
          644.0,
          644.0,
          644.0,
          643.0,
          645.0,
          644.0,
          645.0,
          645.0,
          643.0,
          644.0,
          643.0,
          645.0,
          645.0,
          644.0,
          643.0,
          645.0,
