{
  "aor": 0.010366036585365853,
  "aqi": 0.010276059024390244,
  "bids_meta": {
    "AcquisitionMatrixPE": 64,
    "AcquisitionNumber": 1,
    "AcquisitionTime": "09:17:20.425000",
    "BandwidthPerPixelPhaseEncode": 26.483,
    "BaseResolution": 64,
    "BodyPartExamined": "HEAD",
    "CogAtlasID": "TODO",
    "ConversionSoftware": "dcm2niix",
    "ConversionSoftwareVersion": "v1.0.20171017 GCC6.3.0",
    "DerivedVendorReportedEchoSpacing": 0.000590001,
    "DeviceSerialNumber": "35177",
    "DwellTime": 4.1e-06,
    "EchoTime": 0.027,
    "EffectiveEchoSpacing": 0.000590001,
    "FlipAngle": 90,
    "ImageOrientationPatientDICOM": [
      0.997654,
      -0.0509465,
      -0.0457332,
      0.0608272,
      0.966174,
      0.250613
    ],
    "ImageType": [
      "ORIGINAL",
      "PRIMARY",
      "M",
      "ND",
      "NORM",
      "MOSAIC"
    ],
    "InPlanePhaseEncodingDirectionDICOM": "COL",
    "InstitutionAddress": "Scott_Ave._4525_St._Louis_MO_US_63110",
    "InstitutionName": "Washington_University",
    "InstitutionalDepartmentName": "Department",
    "MRAcquisitionType": "2D",
    "MagneticFieldStrength": 3,
    "Manufacturer": "Siemens",
    "ManufacturersModelName": "TrioTim",
    "Modality": "MR",
    "PartialFourier": 1,
    "PatientPosition": "HFS",
    "PercentPhaseFOV": 100,
    "PhaseEncodingDirection": "j-",
    "PhaseEncodingSteps": 64,
    "PhaseResolution": 1,
    "PixelBandwidth": 1905,
    "ProcedureStepDescription": "head_Dosenbach_MSC",
    "ProtocolName": "ep2d_bold_rest1",
    "PulseSequenceDetails": "%SiemensSeq%_ep2d_bold",
    "ReceiveCoilName": "HeadMatrix",
    "ReconMatrixPE": 64,
    "RepetitionTime": 2.5,
    "SAR": 0.150046,
    "ScanOptions": "FS",
    "ScanningSequence": "EP",
    "SequenceName": "_epfid2d1_64",
    "SequenceVariant": "SK",
    "SeriesDescription": "ep2d_bold_rest1",
    "SeriesNumber": 5,
    "ShimSetting": [
      -261,
      -19693,
      7988,
      384,
      112,
      -946,
      773,
      45
    ],
    "SliceThickness": 4,
    "SliceTiming": [
      1.255,
      0,
      1.3325,
      0.0775,
      1.4125,
      0.1575,
      1.49,
      0.235,
      1.5675,
      0.3125,
      1.6475,
      0.3925,
      1.725,
      0.47,
      1.8025,
      0.5475,
      1.8825,
      0.6275,
      1.96,
      0.705,
      2.0375,
      0.785,
      2.1175,
      0.8625,
      2.195,
      0.94,
      2.275,
      1.02,
      2.3525,
      1.0975,
      2.43,
      1.175
    ],
    "SoftwareVersions": "syngo_MR_B17",
    "SpacingBetweenSlices": 4,
    "StationName": "MRC35177",
    "TaskName": "restbaseline",
    "TotalReadoutTime": 0.0371701,
    "TxRefAmp": 341.242,
    "dataset": "ds000256",
    "dcmmeta_affine": [
      [
        -3.990614891052246,
        0.2433089166879654,
        -0.12567339837551117,
        108.6343002319336
      ],
      [
        0.20378591120243073,
        3.8646979331970215,
        1.0112266540527344,
        -151.06729125976562
      ],
      [
        -0.18293264508247375,
        -1.0024518966674805,
        3.8680241107940674,
        15.90594482421875
      ],
      [
        0.0,
        0.0,
        0.0,
        1.0
      ]
    ],
    "dcmmeta_reorient_transform": [
      [
        0.0,
        -1.0,
        0.0,
        63.0
      ],
      [
        1.0,
        0.0,
        0.0,
        0.0
      ],
      [
        0.0,
        0.0,
        1.0,
        0.0
      ],
      [
        0.0,
        0.0,
        0.0,
        1.0
      ]
    ],
    "dcmmeta_shape": [
      64,
      64,
      32,
      164
    ],
    "dcmmeta_slice_dim": 2,
    "dcmmeta_version": 0.6,
    "global": {
      "const": {
        "AccessionNumber": ".",
        "AcquisitionMatrix": [
          64,
          0,
          0,
          64
        ],
        "AngioFlag": "N",
        "BitsAllocated": 16,
        "BitsStored": 12,
        "BodyPartExamined": "HEAD",
        "Columns": 384,
        "DeidentificationMethodCodeSequence": [
          {
            "CodeMeaning": "XNAT Edit Script",
            "CodeValue": "625500",
            "CodingSchemeDesignator": "XNAT",
            "CodingSchemeVersion": "0.1"
          }
        ],
        "EchoNumbers": 1,
        "EchoTime": 27.0,
        "EchoTrainLength": 1,
        "FlipAngle": 90.0,
        "HighBit": 11,
        "ImageOrientationPatient": [
          0.99765371467228,
          -0.0509464785954,
          -0.0457331599535,
          0.06082723034402,
          0.9661745104294,
          0.25061297541265
        ],
        "ImagePositionPatient": [
          -801.39056914166,
          -678.15462895209,
          -178.37160688776
        ],
        "ImageType": [
          "ORIGINAL",
          "PRIMARY",
          "M",
          "ND",
          "NORM",
          "MOSAIC"
        ],
        "ImagedNucleus": "1H",
        "ImagingFrequency": 123.256198,
        "InPlanePhaseEncodingDirection": "COL",
        "MRAcquisitionType": "2D",
        "MagneticFieldStrength": 3.0,
        "Manufacturer": "SIEMENS",
        "ManufacturerModelName": "TrioTim",
        "Modality": "MR",
        "NumberOfAverages": 1.0,
        "NumberOfPhaseEncodingSteps": 64,
        "PercentPhaseFieldOfView": 100.0,
        "PercentSampling": 100.0,
        "PerformedProcedureStepStartTime": "091214.406000",
        "PhotometricInterpretation": "MONOCHROME2",
        "PixelBandwidth": 1905.0,
        "PixelRepresentation": 0,
        "PixelSpacing": [
          4.0,
          4.0
        ],
        "PositionReferenceIndicator": "",
        "ProtocolName": "ep2d_bold_rest1",
        "RepetitionTime": 2500.0,
        "Rows": 384,
        "SAR": 0.15004633395047,
        "SamplesPerPixel": 1,
        "ScanOptions": "FS",
        "ScanningSequence": "EP",
        "SequenceName": "*epfid2d1_64",
        "SequenceVariant": "SK",
        "SeriesDescription": "ep2d_bold_rest1",
        "SeriesNumber": 5,
        "SeriesTime": "091722.656000",
        "SliceLocation": -26.22279552597,
        "SliceThickness": 4.0,
        "SmallestImagePixelValue": 0,
        "SoftwareVersions": "syngo MR B17",
        "SpacingBetweenSlices": 3.9999980657859,
        "SpecificCharacterSet": "ISO_IR 100",
        "StudyID": "1",
        "StudyTime": "091214.375000",
        "TransmitCoilName": "Body",
        "VariableFlipAngleFlag": "N",
        "WindowCenterWidthExplanation": "Algo1",
        "dBdt": 0.0
      },
      "slices": {}
    },
    "modality": "bold",
    "subject_id": "CTS238",
    "task_id": "restbaseline",
    "time": {
      "samples": {
        "AcquisitionNumber": [
          1,
          2,
          3,
          4,
          5,
          6,
          7,
          8,
          9,
          10,
          11,
          12,
          13,
          14,
          15,
          16,
          17,
          18,
          19,
          20,
          21,
          22,
          23,
          24,
          25,
          26,
          27,
          28,
          29,
          30,
          31,
          32,
          33,
          34,
          35,
          36,
          37,
          38,
          39,
          40,
          41,
          42,
          43,
          44,
          45,
          46,
          47,
          48,
          49,
          50,
          51,
          52,
          53,
          54,
          55,
          56,
          57,
          58,
          59,
          60,
          61,
          62,
          63,
          64,
          65,
          66,
          67,
          68,
          69,
          70,
          71,
          72,
          73,
          74,
          75,
          76,
          77,
          78,
          79,
          80,
          81,
          82,
          83,
          84,
          85,
          86,
          87,
          88,
          89,
          90,
          91,
          92,
          93,
          94,
          95,
          96,
          97,
          98,
          99,
          100,
          101,
          102,
          103,
          104,
          105,
          106,
          107,
          108,
          109,
          110,
          111,
          112,
          113,
          114,
          115,
          116,
          117,
          118,
          119,
          120,
          121,
          122,
          123,
          124,
          125,
          126,
          127,
          128,
          129,
          130,
          131,
          132,
          133,
          134,
          135,
          136,
          137,
          138,
          139,
          140,
          141,
          142,
          143,
          144,
          145,
          146,
          147,
          148,
          149,
          150,
          151,
          152,
          153,
          154,
          155,
          156,
          157,
          158,
          159,
          160,
          161,
          162,
          163,
          164
        ],
        "AcquisitionTime": [
          "091720.425000",
          "091722.935000",
          "091725.445000",
          "091727.955000",
          "091730.465000",
          "091732.975000",
          "091735.485000",
          "091737.995000",
          "091740.505000",
          "091743.015000",
          "091745.525000",
          "091748.035000",
          "091750.545000",
          "091753.055000",
          "091755.565000",
          "091758.075000",
          "091800.585000",
          "091803.095000",
          "091805.605000",
          "091808.115000",
          "091810.625000",
          "091813.135000",
          "091815.645000",
          "091818.155000",
          "091820.665000",
          "091823.175000",
          "091825.685000",
          "091828.195000",
          "091830.705000",
          "091833.215000",
          "091835.725000",
          "091838.235000",
          "091840.745000",
          "091843.255000",
          "091845.765000",
          "091848.275000",
          "091850.785000",
          "091853.295000",
          "091855.805000",
          "091858.315000",
          "091900.825000",
          "091903.335000",
          "091905.845000",
          "091908.355000",
          "091910.867500",
          "091913.377500",
          "091915.887500",
          "091918.397500",
          "091920.907500",
          "091923.417500",
          "091925.927500",
          "091928.437500",
          "091930.947500",
          "091933.457500",
          "091935.967500",
          "091938.477500",
          "091940.987500",
          "091943.497500",
          "091946.007500",
          "091948.517500",
          "091951.027500",
          "091953.537500",
          "091956.047500",
          "091958.557500",
          "092001.067500",
          "092003.577500",
          "092006.087500",
          "092008.597500",
          "092011.107500",
          "092013.617500",
          "092016.127500",
          "092018.637500",
          "092021.147500",
          "092023.657500",
          "092026.167500",
          "092028.677500",
          "092031.187500",
          "092033.697500",
          "092036.207500",
          "092038.717500",
          "092041.227500",
          "092043.737500",
          "092046.247500",
          "092048.757500",
          "092051.267500",
          "092053.777500",
          "092056.287500",
          "092058.797500",
          "092101.307500",
          "092103.817500",
          "092106.327500",
          "092108.837500",
          "092111.347500",
          "092113.857500",
          "092116.367500",
          "092118.877500",
          "092121.387500",
          "092123.897500",
          "092126.407500",
          "092128.917500",
          "092131.427500",
          "092133.937500",
          "092136.447500",
          "092138.957500",
          "092141.467500",
          "092143.977500",
          "092146.490000",
          "092149.000000",
          "092151.510000",
          "092154.020000",
          "092156.530000",
          "092159.040000",
          "092201.550000",
          "092204.060000",
          "092206.570000",
          "092209.080000",
          "092211.590000",
          "092214.100000",
          "092216.610000",
          "092219.120000",
          "092221.630000",
          "092224.140000",
          "092226.650000",
          "092229.160000",
          "092231.670000",
          "092234.180000",
          "092236.690000",
          "092239.200000",
          "092241.710000",
          "092244.220000",
          "092246.730000",
          "092249.240000",
          "092251.750000",
          "092254.260000",
          "092256.770000",
          "092259.280000",
          "092301.790000",
          "092304.300000",
          "092306.810000",
          "092309.320000",
          "092311.830000",
          "092314.340000",
          "092316.850000",
          "092319.360000",
          "092321.870000",
          "092324.380000",
          "092326.890000",
          "092329.400000",
          "092331.910000",
          "092334.420000",
          "092336.930000",
          "092339.440000",
          "092341.950000",
          "092344.460000",
          "092346.970000",
          "092349.480000",
          "092351.990000",
          "092354.500000",
          "092357.010000",
          "092359.520000",
          "092402.030000",
          "092404.540000",
          "092407.050000",
          "092409.560000"
        ],
        "ContentTime": [
          "091722.671000",
          "091725.156000",
          "091727.656000",
          "091730.156000",
          "091732.656000",
          "091735.156000",
          "091737.656000",
          "091740.156000",
          "091742.656000",
          "091745.156000",
          "091747.656000",
          "091750.156000",
          "091752.656000",
          "091755.156000",
          "091757.656000",
          "091800.156000",
          "091802.656000",
          "091805.156000",
          "091807.656000",
          "091810.156000",
          "091812.656000",
          "091815.156000",
          "091817.656000",
          "091820.156000",
          "091822.656000",
          "091825.156000",
          "091827.656000",
          "091830.156000",
          "091832.656000",
          "091835.156000",
          "091837.656000",
          "091840.156000",
          "091842.656000",
          "091845.156000",
          "091847.656000",
          "091850.156000",
          "091852.656000",
          "091855.156000",
          "091857.656000",
          "091900.156000",
          "091902.656000",
          "091905.156000",
          "091907.656000",
          "091910.156000",
          "091912.656000",
          "091915.156000",
          "091917.656000",
          "091920.156000",
          "091922.656000",
          "091925.156000",
          "091927.656000",
          "091930.156000",
          "091932.656000",
          "091935.156000",
          "091937.656000",
          "091940.156000",
          "091942.656000",
          "091945.156000",
          "091947.656000",
          "091950.156000",
          "091952.656000",
          "091955.156000",
          "091957.656000",
          "092000.156000",
          "092002.656000",
          "092005.156000",
          "092007.656000",
          "092010.156000",
          "092012.656000",
          "092015.156000",
          "092017.656000",
          "092020.156000",
          "092022.656000",
          "092025.156000",
          "092027.656000",
          "092030.156000",
          "092032.656000",
          "092035.156000",
          "092037.656000",
          "092040.156000",
          "092042.656000",
          "092045.156000",
          "092047.656000",
          "092050.156000",
          "092052.656000",
          "092055.156000",
          "092057.656000",
          "092100.156000",
          "092102.656000",
          "092105.156000",
          "092107.656000",
          "092110.156000",
          "092112.656000",
          "092115.156000",
          "092117.656000",
          "092120.156000",
          "092122.656000",
          "092125.156000",
          "092127.656000",
          "092130.156000",
          "092132.656000",
          "092135.156000",
          "092137.656000",
          "092140.156000",
          "092142.656000",
          "092145.156000",
          "092147.656000",
          "092150.156000",
          "092152.656000",
          "092155.156000",
          "092157.656000",
          "092200.156000",
          "092202.656000",
          "092205.156000",
          "092207.656000",
          "092210.156000",
          "092212.656000",
          "092215.156000",
          "092217.656000",
          "092220.156000",
          "092222.656000",
          "092225.156000",
          "092227.656000",
          "092230.156000",
          "092232.656000",
          "092235.156000",
          "092237.656000",
          "092240.156000",
          "092242.656000",
          "092245.156000",
          "092247.656000",
          "092250.156000",
          "092252.656000",
          "092255.156000",
          "092257.656000",
          "092300.156000",
          "092302.656000",
          "092305.156000",
          "092307.656000",
          "092310.156000",
          "092312.656000",
          "092315.156000",
          "092317.656000",
          "092320.156000",
          "092322.656000",
          "092325.156000",
          "092327.656000",
          "092330.156000",
          "092332.656000",
          "092335.156000",
          "092337.656000",
          "092340.156000",
          "092342.656000",
          "092345.156000",
          "092347.656000",
          "092350.156000",
          "092352.656000",
          "092355.156000",
          "092357.656000",
          "092400.156000",
          "092402.656000",
          "092405.156000",
          "092407.656000",
          "092409.765000"
        ],
        "InstanceCreationTime": [
          "091722.671000",
          "091725.156000",
          "091727.656000",
          "091730.156000",
          "091732.656000",
          "091735.156000",
          "091737.656000",
          "091740.156000",
          "091742.656000",
          "091745.156000",
          "091747.656000",
          "091750.156000",
          "091752.656000",
          "091755.156000",
          "091757.656000",
          "091800.156000",
          "091802.656000",
          "091805.156000",
          "091807.656000",
          "091810.156000",
          "091812.656000",
          "091815.156000",
          "091817.656000",
          "091820.156000",
          "091822.656000",
          "091825.156000",
          "091827.656000",
          "091830.156000",
          "091832.656000",
          "091835.156000",
          "091837.656000",
          "091840.156000",
          "091842.656000",
          "091845.156000",
          "091847.656000",
          "091850.156000",
          "091852.656000",
          "091855.156000",
          "091857.656000",
          "091900.156000",
          "091902.656000",
          "091905.156000",
          "091907.656000",
          "091910.156000",
          "091912.656000",
          "091915.156000",
          "091917.656000",
          "091920.156000",
          "091922.656000",
          "091925.156000",
          "091927.656000",
          "091930.156000",
          "091932.656000",
          "091935.156000",
          "091937.656000",
          "091940.156000",
          "091942.656000",
          "091945.156000",
          "091947.656000",
          "091950.156000",
          "091952.656000",
          "091955.156000",
          "091957.656000",
          "092000.156000",
          "092002.656000",
          "092005.156000",
          "092007.656000",
          "092010.156000",
          "092012.656000",
          "092015.156000",
          "092017.656000",
          "092020.156000",
          "092022.656000",
          "092025.156000",
          "092027.656000",
          "092030.156000",
          "092032.656000",
          "092035.156000",
          "092037.656000",
          "092040.156000",
          "092042.656000",
          "092045.156000",
          "092047.656000",
          "092050.156000",
          "092052.656000",
          "092055.156000",
          "092057.656000",
          "092100.156000",
          "092102.656000",
          "092105.156000",
          "092107.656000",
          "092110.156000",
          "092112.656000",
          "092115.156000",
          "092117.656000",
          "092120.156000",
          "092122.656000",
          "092125.156000",
          "092127.656000",
          "092130.156000",
          "092132.656000",
          "092135.156000",
          "092137.656000",
          "092140.156000",
          "092142.656000",
          "092145.156000",
          "092147.656000",
          "092150.156000",
          "092152.656000",
          "092155.156000",
          "092157.656000",
          "092200.156000",
          "092202.656000",
          "092205.156000",
          "092207.656000",
          "092210.156000",
          "092212.656000",
          "092215.156000",
          "092217.656000",
          "092220.156000",
          "092222.656000",
          "092225.156000",
          "092227.656000",
          "092230.156000",
          "092232.656000",
          "092235.156000",
          "092237.656000",
          "092240.156000",
          "092242.656000",
          "092245.156000",
          "092247.656000",
          "092250.156000",
          "092252.656000",
          "092255.156000",
          "092257.656000",
          "092300.156000",
          "092302.656000",
          "092305.156000",
          "092307.656000",
          "092310.156000",
          "092312.656000",
          "092315.156000",
          "092317.656000",
          "092320.156000",
          "092322.656000",
          "092325.156000",
          "092327.656000",
          "092330.156000",
          "092332.656000",
          "092335.156000",
          "092337.656000",
          "092340.156000",
          "092342.656000",
          "092345.156000",
          "092347.656000",
          "092350.156000",
          "092352.656000",
          "092355.156000",
          "092357.656000",
          "092400.156000",
          "092402.656000",
          "092405.156000",
          "092407.656000",
          "092409.765000"
        ],
        "InstanceNumber": [
          1,
          2,
          3,
          4,
          5,
          6,
          7,
          8,
          9,
          10,
          11,
          12,
          13,
          14,
          15,
          16,
          17,
          18,
          19,
          20,
          21,
          22,
          23,
          24,
          25,
          26,
          27,
          28,
          29,
          30,
          31,
          32,
          33,
          34,
          35,
          36,
          37,
          38,
          39,
          40,
          41,
          42,
          43,
          44,
          45,
          46,
          47,
          48,
          49,
          50,
          51,
          52,
          53,
          54,
          55,
          56,
          57,
          58,
          59,
          60,
          61,
          62,
          63,
          64,
          65,
          66,
          67,
          68,
          69,
          70,
          71,
          72,
          73,
          74,
          75,
          76,
          77,
          78,
          79,
          80,
          81,
          82,
          83,
          84,
          85,
          86,
          87,
          88,
          89,
          90,
          91,
          92,
          93,
          94,
          95,
          96,
          97,
          98,
          99,
          100,
          101,
          102,
          103,
          104,
          105,
          106,
          107,
          108,
          109,
          110,
          111,
          112,
          113,
          114,
          115,
          116,
          117,
          118,
          119,
          120,
          121,
          122,
          123,
          124,
          125,
          126,
          127,
          128,
          129,
          130,
          131,
          132,
          133,
          134,
          135,
          136,
          137,
          138,
          139,
          140,
          141,
          142,
          143,
          144,
          145,
          146,
          147,
          148,
          149,
          150,
          151,
          152,
          153,
          154,
          155,
          156,
          157,
          158,
          159,
          160,
          161,
          162,
          163,
          164
        ],
        "LargestImagePixelValue": [
          1562,
          1569,
          1575,
          1528,
          1597,
          1544,
          1610,
          1531,
          1539,
          1553,
          1531,
          1560,
          1580,
          1560,
          1576,
          1582,
          1594,
          1587,
          1577,
          1568,
          1564,
          1538,
          1557,
          1560,
          1545,
          1537,
          1534,
          1524,
          1567,
          1553,
          1596,
          1551,
          1562,
          1558,
          1568,
          1540,
          1549,
          1557,
          1543,
          1584,
          1544,
          1561,
          1520,
          1552,
          1557,
          1540,
          1526,
          1521,
          1527,
          1551,
          1562,
          1560,
          1549,
          1536,
          1581,
          1559,
          1574,
          1531,
          1557,
          1547,
          1593,
          1569,
          1545,
          1569,
          1547,
          1581,
          1561,
          1561,
          1598,
          1545,
          1599,
          1547,
          1588,
          1555,
          1526,
          1530,
          1528,
          1525,
          1570,
          1596,
          1570,
          1551,
          1550,
          1576,
          1539,
          1515,
          1552,
          1559,
          1538,
          1561,
          1535,
          1521,
          1577,
          1571,
          1510,
          1550,
          1537,
          1535,
          1576,
          1572,
          1559,
          1557,
          1514,
          1534,
          1698,
          1515,
          1529,
          1539,
          1520,
          1526,
          1505,
          1506,
          1495,
          1527,
          1516,
          1537,
          1561,
          1560,
          1534,
          1530,
          1535,
          1522,
          1551,
          1512,
          1574,
          1562,
          1627,
          1545,
          1552,
          1539,
          1548,
          1566,
          1616,
          1510,
          1561,
          1551,
          1566,
          1548,
          1532,
          1575,
          1517,
          1536,
          1524,
          1621,
          1585,
          1555,
          1555,
          1542,
          1555,
          1548,
          1524,
          1531,
          1547,
          1539,
          1568,
          1548,
          1549,
          1521,
          1527,
          1521,
          1682,
          1548,
          1533,
          1537
        ],
        "WindowCenter": [
          643.0,
          640.0,
          642.0,
          644.0,
          647.0,
          645.0,
          645.0,
          644.0,
          645.0,
          646.0,
          647.0,
          645.0,
          645.0,
          644.0,
          645.0,
          646.0,
          647.0,
          647.0,
          643.0,
          644.0,
          641.0,
          643.0,
          644.0,
          645.0,
          643.0,
          643.0,
          644.0,
          644.0,
          645.0,
          644.0,
          644.0,
          645.0,
          646.0,
          642.0,
          642.0,
          642.0,
          644.0,
          646.0,
          646.0,
          644.0,
          642.0,
          642.0,
          643.0,
          644.0,
          643.0,
          644.0,
          645.0,
          646.0,
          645.0,
          644.0,
          644.0,
          643.0,
          643.0,
          643.0,
          645.0,
          643.0,
          643.0,
          644.0,
          645.0,
          644.0,
          645.0,
          644.0,
          644.0,
          644.0,
          644.0,
          642.0,
          642.0,
          644.0,
          644.0,
          642.0,
          643.0,
          639.0,
          638.0,
          639.0,
          643.0,
          644.0,
          644.0,
          644.0,
          643.0,
          643.0,
          643.0,
          642.0,
          642.0,
          643.0,
          644.0,
          643.0,
          643.0,
          644.0,
          643.0,
          644.0,
          644.0,
          644.0,
          643.0,
          643.0,
          644.0,
          643.0,
          646.0,
          645.0,
          643.0,
          644.0,
          644.0,
          644.0,
          643.0,
          636.0,
          644.0,
          642.0,
          639.0,
          638.0,
          639.0,
          640.0,
          642.0,
          644.0,
          644.0,
          644.0,
          644.0,
          644.0,
          642.0,
          642.0,
          642.0,
          641.0,
          642.0,
          642.0,
          643.0,
          644.0,
          644.0,
          643.0,
          643.0,
          642.0,
          643.0,
          642.0,
          641.0,
          641.0,
          642.0,
          645.0,
          643.0,
          643.0,
          643.0,
          642.0,
          642.0,
          642.0,
          643.0,
          644.0,
          643.0,
          643.0,
          644.0,
          643.0,
          643.0,
          644.0,
          643.0,
          642.0,
          642.0,
