{
  "aor": 0.030162926829268286,
  "aqi": 0.052574464024390234,
  "bids_meta": {
    "AcquisitionMatrixPE": 64,
    "AcquisitionNumber": 1,
    "AcquisitionTime": "14:28:47.230000",
    "BandwidthPerPixelPhaseEncode": 26.483,
    "BaseResolution": 64,
    "BodyPartExamined": "HEAD",
    "CogAtlasID": "TODO",
    "ConversionSoftware": "dcm2niix",
    "ConversionSoftwareVersion": "v1.0.20171017 GCC6.3.0",
    "DerivedVendorReportedEchoSpacing": 0.000590001,
    "DeviceSerialNumber": "35177",
    "DwellTime": 4.1e-06,
    "EchoTime": 0.027,
    "EffectiveEchoSpacing": 0.000590001,
    "FlipAngle": 90,
    "ImageOrientationPatientDICOM": [
      0.99676,
      -0.000540161,
      -0.0804348,
      0.0113085,
      0.990987,
      0.133482
    ],
    "ImageType": [
      "ORIGINAL",
      "PRIMARY",
      "M",
      "ND",
      "NORM",
      "MOSAIC"
    ],
    "InPlanePhaseEncodingDirectionDICOM": "COL",
    "InstitutionAddress": "Scott_Ave._4525_St._Louis_MO_US_63110",
    "InstitutionName": "Washington_University",
    "InstitutionalDepartmentName": "Department",
    "MRAcquisitionType": "2D",
    "MagneticFieldStrength": 3,
    "Manufacturer": "Siemens",
    "ManufacturersModelName": "TrioTim",
    "Modality": "MR",
    "PartialFourier": 1,
    "PatientPosition": "HFS",
    "PercentPhaseFOV": 100,
    "PhaseEncodingDirection": "j-",
    "PhaseEncodingSteps": 64,
    "PhaseResolution": 1,
    "PixelBandwidth": 1905,
    "ProcedureStepDescription": "head_GREENE",
    "ProtocolName": "ep2d_bold_ad_movie_1A",
    "PulseSequenceDetails": "%SiemensSeq%_ep2d_bold",
    "ReceiveCoilName": "HeadMatrix",
    "ReconMatrixPE": 64,
    "RepetitionTime": 2.5,
    "SAR": 0.14361,
    "ScanOptions": "FS",
    "ScanningSequence": "EP",
    "SequenceName": "_epfid2d1_64",
    "SequenceVariant": "SK",
    "SeriesDescription": "ep2d_bold_ad_movie_1A",
    "SeriesNumber": 11,
    "ShimSetting": [
      -247,
      -19573,
      8096,
      439,
      162,
      -14,
      187,
      18
    ],
    "SliceThickness": 4,
    "SliceTiming": [
      1.255,
      0,
      1.3325,
      0.0775,
      1.4125,
      0.1575,
      1.49,
      0.235,
      1.5675,
      0.315,
      1.6475,
      0.3925,
      1.725,
      0.47,
      1.805,
      0.55,
      1.8825,
      0.6275,
      1.96,
      0.705,
      2.04,
      0.785,
      2.1175,
      0.8625,
      2.195,
      0.9425,
      2.275,
      1.02,
      2.3525,
      1.0975,
      2.4325,
      1.1775
    ],
    "SoftwareVersions": "syngo_MR_B17",
    "SpacingBetweenSlices": 4,
    "StationName": "MRC35177",
    "TaskName": "restmovieadaptive",
    "TotalReadoutTime": 0.0371701,
    "TxRefAmp": 353.169,
    "dataset": "ds000256",
    "dcmmeta_affine": [
      [
        -3.9870388507843018,
        0.04523400589823723,
        -0.3185510039329529,
        131.1153564453125
      ],
      [
        0.0021606453228741884,
        3.963947057723999,
        0.5358344316482544,
        -136.75186157226562
      ],
      [
        -0.3217393457889557,
        -0.5339261889457703,
        3.95112681388855,
        3.1323604583740234
      ],
      [
        0.0,
        0.0,
        0.0,
        1.0
      ]
    ],
    "dcmmeta_reorient_transform": [
      [
        0.0,
        -1.0,
        0.0,
        63.0
      ],
      [
        1.0,
        0.0,
        0.0,
        0.0
      ],
      [
        0.0,
        0.0,
        1.0,
        0.0
      ],
      [
        0.0,
        0.0,
        0.0,
        1.0
      ]
    ],
    "dcmmeta_shape": [
      64,
      64,
      32,
      164
    ],
    "dcmmeta_slice_dim": 2,
    "dcmmeta_version": 0.6,
    "global": {
      "const": {
        "AccessionNumber": ".",
        "AcquisitionMatrix": [
          64,
          0,
          0,
          64
        ],
        "AngioFlag": "N",
        "BitsAllocated": 16,
        "BitsStored": 12,
        "BodyPartExamined": "HEAD",
        "Columns": 384,
        "DeidentificationMethodCodeSequence": [
          {
            "CodeMeaning": "XNAT Edit Script",
            "CodeValue": "625500",
            "CodingSchemeDesignator": "XNAT",
            "CodingSchemeVersion": "0.1"
          }
        ],
        "EchoNumbers": 1,
        "EchoTime": 27.0,
        "EchoTrainLength": 1,
        "FlipAngle": 90.0,
        "HighBit": 11,
        "ImageOrientationPatient": [
          0.99675972300084,
          -0.0005401613117,
          -0.0804348359173,
          0.01130850126388,
          0.99098677889418,
          0.13348154125612
        ],
        "ImagePositionPatient": [
          -779.12875593074,
          -746.86264639205,
          -64.454879389539
        ],
        "ImageType": [
          "ORIGINAL",
          "PRIMARY",
          "M",
          "ND",
          "NORM",
          "MOSAIC"
        ],
        "ImagedNucleus": "1H",
        "ImagingFrequency": 123.255861,
        "InPlanePhaseEncodingDirection": "COL",
        "MRAcquisitionType": "2D",
        "MagneticFieldStrength": 3.0,
        "Manufacturer": "SIEMENS",
        "ManufacturerModelName": "TrioTim",
        "Modality": "MR",
        "NumberOfAverages": 1.0,
        "NumberOfPhaseEncodingSteps": 64,
        "PercentPhaseFieldOfView": 100.0,
        "PercentSampling": 100.0,
        "PerformedProcedureStepStartTime": "133015.734000",
        "PhotometricInterpretation": "MONOCHROME2",
        "PixelBandwidth": 1905.0,
        "PixelRepresentation": 0,
        "PixelSpacing": [
          4.0,
          4.0
        ],
        "PositionReferenceIndicator": "",
        "ProtocolName": "ep2d_bold_ad_movie_1A",
        "RepetitionTime": 2500.0,
        "Rows": 384,
        "SAR": 0.14361029609994,
        "SamplesPerPixel": 1,
        "ScanOptions": "FS",
        "ScanningSequence": "EP",
        "SequenceName": "*epfid2d1_64",
        "SequenceVariant": "SK",
        "SeriesDescription": "ep2d_bold_ad_movie_1A",
        "SeriesNumber": 11,
        "SeriesTime": "142849.125000",
        "SliceLocation": -25.666734048233,
        "SliceThickness": 4.0,
        "SmallestImagePixelValue": 0,
        "SoftwareVersions": "syngo MR B17",
        "SpacingBetweenSlices": 3.9999995155721,
        "SpecificCharacterSet": "ISO_IR 100",
        "StudyID": "1",
        "StudyTime": "133015.687000",
        "TransmitCoilName": "Body",
        "VariableFlipAngleFlag": "N",
        "WindowCenterWidthExplanation": "Algo1",
        "dBdt": 0.0
      },
      "slices": {}
    },
    "modality": "bold",
    "subject_id": "CTS208",
    "task_id": "restmovieadaptive",
    "time": {
      "samples": {
        "AcquisitionNumber": [
          1,
          2,
          3,
          4,
          5,
          6,
          7,
          8,
          9,
          10,
          11,
          12,
          13,
          14,
          15,
          16,
          17,
          18,
          19,
          20,
          21,
          22,
          23,
          24,
          25,
          26,
          27,
          28,
          29,
          30,
          31,
          32,
          33,
          34,
          35,
          36,
          37,
          38,
          39,
          40,
          41,
          42,
          43,
          44,
          45,
          46,
          47,
          48,
          49,
          50,
          51,
          52,
          53,
          54,
          55,
          56,
          57,
          58,
          59,
          60,
          61,
          62,
          63,
          64,
          65,
          66,
          67,
          68,
          69,
          70,
          71,
          72,
          73,
          74,
          75,
          76,
          77,
          78,
          79,
          80,
          81,
          82,
          83,
          84,
          85,
          86,
          87,
          88,
          89,
          90,
          91,
          92,
          93,
          94,
          95,
          96,
          97,
          98,
          99,
          100,
          101,
          102,
          103,
          104,
          105,
          106,
          107,
          108,
          109,
          110,
          111,
          112,
          113,
          114,
          115,
          116,
          117,
          118,
          119,
          120,
          121,
          122,
          123,
          124,
          125,
          126,
          127,
          128,
          129,
          130,
          131,
          132,
          133,
          134,
          135,
          136,
          137,
          138,
          139,
          140,
          141,
          142,
          143,
          144,
          145,
          146,
          147,
          148,
          149,
          150,
          151,
          152,
          153,
          154,
          155,
          156,
          157,
          158,
          159,
          160,
          161,
          162,
          163,
          164
        ],
        "AcquisitionTime": [
          "142847.230000",
          "142849.740000",
          "142852.250000",
          "142854.760000",
          "142857.270000",
          "142859.780000",
          "142902.290000",
          "142904.800000",
          "142907.310000",
          "142909.820000",
          "142912.330000",
          "142914.840000",
          "142917.350000",
          "142919.860000",
          "142922.370000",
          "142924.880000",
          "142927.390000",
          "142929.900000",
          "142932.410000",
          "142934.920000",
          "142937.430000",
          "142939.940000",
          "142942.450000",
          "142944.960000",
          "142947.470000",
          "142949.980000",
          "142952.490000",
          "142955.000000",
          "142957.510000",
          "143000.020000",
          "143002.530000",
          "143005.040000",
          "143007.552500",
          "143010.062500",
          "143012.572500",
          "143015.082500",
          "143017.592500",
          "143020.102500",
          "143022.612500",
          "143025.122500",
          "143027.632500",
          "143030.142500",
          "143032.652500",
          "143035.162500",
          "143037.672500",
          "143040.182500",
          "143042.692500",
          "143045.202500",
          "143047.712500",
          "143050.222500",
          "143052.732500",
          "143055.242500",
          "143057.752500",
          "143100.262500",
          "143102.772500",
          "143105.282500",
          "143107.792500",
          "143110.302500",
          "143112.812500",
          "143115.322500",
          "143117.832500",
          "143120.342500",
          "143122.852500",
          "143125.362500",
          "143127.872500",
          "143130.382500",
          "143132.892500",
          "143135.402500",
          "143137.912500",
          "143140.422500",
          "143142.932500",
          "143145.442500",
          "143147.952500",
          "143150.462500",
          "143152.972500",
          "143155.482500",
          "143157.992500",
          "143200.502500",
          "143203.012500",
          "143205.522500",
          "143208.032500",
          "143210.542500",
          "143213.052500",
          "143215.562500",
          "143218.072500",
          "143220.582500",
          "143223.092500",
          "143225.602500",
          "143228.112500",
          "143230.622500",
          "143233.132500",
          "143235.642500",
          "143238.152500",
          "143240.662500",
          "143243.175000",
          "143245.685000",
          "143248.195000",
          "143250.705000",
          "143253.215000",
          "143255.725000",
          "143258.235000",
          "143300.745000",
          "143303.255000",
          "143305.765000",
          "143308.275000",
          "143310.785000",
          "143313.295000",
          "143315.805000",
          "143318.315000",
          "143320.825000",
          "143323.335000",
          "143325.845000",
          "143328.355000",
          "143330.865000",
          "143333.375000",
          "143335.885000",
          "143338.395000",
          "143340.905000",
          "143343.415000",
          "143345.925000",
          "143348.435000",
          "143350.945000",
          "143353.455000",
          "143355.965000",
          "143358.475000",
          "143400.985000",
          "143403.495000",
          "143406.005000",
          "143408.515000",
          "143411.025000",
          "143413.535000",
          "143416.045000",
          "143418.555000",
          "143421.065000",
          "143423.575000",
          "143426.085000",
          "143428.595000",
          "143431.105000",
          "143433.615000",
          "143436.125000",
          "143438.635000",
          "143441.145000",
          "143443.655000",
          "143446.165000",
          "143448.675000",
          "143451.185000",
          "143453.695000",
          "143456.205000",
          "143458.715000",
          "143501.225000",
          "143503.735000",
          "143506.245000",
          "143508.755000",
          "143511.265000",
          "143513.775000",
          "143516.285000",
          "143518.797500",
          "143521.307500",
          "143523.817500",
          "143526.327500",
          "143528.837500",
          "143531.347500",
          "143533.857500",
          "143536.367500"
        ],
        "ContentTime": [
          "142849.125000",
          "142851.625000",
          "142854.125000",
          "142856.625000",
          "142859.125000",
          "142901.625000",
          "142904.125000",
          "142906.625000",
          "142909.125000",
          "142911.625000",
          "142914.125000",
          "142916.625000",
          "142919.125000",
          "142921.625000",
          "142924.125000",
          "142926.625000",
          "142929.125000",
          "142931.625000",
          "142934.125000",
          "142936.625000",
          "142939.125000",
          "142941.625000",
          "142944.125000",
          "142946.625000",
          "142949.125000",
          "142951.625000",
          "142954.125000",
          "142956.625000",
          "142959.125000",
          "143001.625000",
          "143004.125000",
          "143006.625000",
          "143009.125000",
          "143011.625000",
          "143014.125000",
          "143016.625000",
          "143019.125000",
          "143021.625000",
          "143024.125000",
          "143026.625000",
          "143029.125000",
          "143031.625000",
          "143034.125000",
          "143036.625000",
          "143039.125000",
          "143041.625000",
          "143044.125000",
          "143046.625000",
          "143049.125000",
          "143051.625000",
          "143054.125000",
          "143056.625000",
          "143059.125000",
          "143101.625000",
          "143104.125000",
          "143106.625000",
          "143109.125000",
          "143111.625000",
          "143114.125000",
          "143116.625000",
          "143119.125000",
          "143121.625000",
          "143124.125000",
          "143126.625000",
          "143129.125000",
          "143131.625000",
          "143134.125000",
          "143136.625000",
          "143139.125000",
          "143141.625000",
          "143144.125000",
          "143146.625000",
          "143149.125000",
          "143151.625000",
          "143154.125000",
          "143156.625000",
          "143159.125000",
          "143201.625000",
          "143204.125000",
          "143206.625000",
          "143209.125000",
          "143211.625000",
          "143214.125000",
          "143216.625000",
          "143219.125000",
          "143221.625000",
          "143224.125000",
          "143226.625000",
          "143229.125000",
          "143231.625000",
          "143234.125000",
          "143236.625000",
          "143239.125000",
          "143241.625000",
          "143244.125000",
          "143246.625000",
          "143249.125000",
          "143251.625000",
          "143254.125000",
          "143256.625000",
          "143259.125000",
          "143301.625000",
          "143304.125000",
          "143306.625000",
          "143309.125000",
          "143311.625000",
          "143314.125000",
          "143316.625000",
          "143319.125000",
          "143321.625000",
          "143324.125000",
          "143326.625000",
          "143329.125000",
          "143331.625000",
          "143334.125000",
          "143336.625000",
          "143339.125000",
          "143341.625000",
          "143344.125000",
          "143346.625000",
          "143349.125000",
          "143351.625000",
          "143354.125000",
          "143356.625000",
          "143359.125000",
          "143401.625000",
          "143404.125000",
          "143406.625000",
          "143409.125000",
          "143411.625000",
          "143414.125000",
          "143416.625000",
          "143419.125000",
          "143421.625000",
          "143424.125000",
          "143426.625000",
          "143429.125000",
          "143431.625000",
          "143434.125000",
          "143436.625000",
          "143439.125000",
          "143441.625000",
          "143444.125000",
          "143446.625000",
          "143449.125000",
          "143451.625000",
          "143454.125000",
          "143456.625000",
          "143459.125000",
          "143501.625000",
          "143504.125000",
          "143506.625000",
          "143509.125000",
          "143511.625000",
          "143514.125000",
          "143516.625000",
          "143519.125000",
          "143521.625000",
          "143524.125000",
          "143526.625000",
          "143529.125000",
          "143531.625000",
          "143534.125000",
          "143536.531000"
        ],
        "InstanceCreationTime": [
          "142849.125000",
          "142851.625000",
          "142854.125000",
          "142856.625000",
          "142859.125000",
          "142901.625000",
          "142904.125000",
          "142906.625000",
          "142909.125000",
          "142911.625000",
          "142914.125000",
          "142916.625000",
          "142919.125000",
          "142921.625000",
          "142924.125000",
          "142926.625000",
          "142929.125000",
          "142931.625000",
          "142934.125000",
          "142936.625000",
          "142939.125000",
          "142941.625000",
          "142944.125000",
          "142946.625000",
          "142949.125000",
          "142951.625000",
          "142954.125000",
          "142956.625000",
          "142959.125000",
          "143001.625000",
          "143004.125000",
          "143006.625000",
          "143009.125000",
          "143011.625000",
          "143014.125000",
          "143016.625000",
          "143019.125000",
          "143021.625000",
          "143024.125000",
          "143026.625000",
          "143029.125000",
          "143031.625000",
          "143034.125000",
          "143036.625000",
          "143039.125000",
          "143041.625000",
          "143044.125000",
          "143046.625000",
          "143049.125000",
          "143051.625000",
          "143054.125000",
          "143056.625000",
          "143059.125000",
          "143101.625000",
          "143104.125000",
          "143106.625000",
          "143109.125000",
          "143111.625000",
          "143114.125000",
          "143116.625000",
          "143119.125000",
          "143121.625000",
          "143124.125000",
          "143126.625000",
          "143129.125000",
          "143131.625000",
          "143134.125000",
          "143136.625000",
          "143139.125000",
          "143141.625000",
          "143144.125000",
          "143146.625000",
          "143149.125000",
          "143151.625000",
          "143154.125000",
          "143156.625000",
          "143159.125000",
          "143201.625000",
          "143204.125000",
          "143206.625000",
          "143209.125000",
          "143211.625000",
          "143214.125000",
          "143216.625000",
          "143219.125000",
          "143221.625000",
          "143224.125000",
          "143226.625000",
          "143229.125000",
          "143231.625000",
          "143234.125000",
          "143236.625000",
          "143239.125000",
          "143241.625000",
          "143244.125000",
          "143246.625000",
          "143249.125000",
          "143251.625000",
          "143254.125000",
          "143256.625000",
          "143259.125000",
          "143301.625000",
          "143304.125000",
          "143306.625000",
          "143309.125000",
          "143311.625000",
          "143314.125000",
          "143316.625000",
          "143319.125000",
          "143321.625000",
          "143324.125000",
          "143326.625000",
          "143329.125000",
          "143331.625000",
          "143334.125000",
          "143336.625000",
          "143339.125000",
          "143341.625000",
          "143344.125000",
          "143346.625000",
          "143349.125000",
          "143351.625000",
          "143354.125000",
          "143356.625000",
          "143359.125000",
          "143401.625000",
          "143404.125000",
          "143406.625000",
          "143409.125000",
          "143411.625000",
          "143414.125000",
          "143416.625000",
          "143419.125000",
          "143421.625000",
          "143424.125000",
          "143426.625000",
          "143429.125000",
          "143431.625000",
          "143434.125000",
          "143436.625000",
          "143439.125000",
          "143441.625000",
          "143444.125000",
          "143446.625000",
          "143449.125000",
          "143451.625000",
          "143454.125000",
          "143456.625000",
          "143459.125000",
          "143501.625000",
          "143504.125000",
          "143506.625000",
          "143509.125000",
          "143511.625000",
          "143514.125000",
          "143516.625000",
          "143519.125000",
          "143521.625000",
          "143524.125000",
          "143526.625000",
          "143529.125000",
          "143531.625000",
          "143534.125000",
          "143536.531000"
        ],
        "InstanceNumber": [
          1,
          2,
          3,
          4,
          5,
          6,
          7,
          8,
          9,
          10,
          11,
          12,
          13,
          14,
          15,
          16,
          17,
          18,
          19,
          20,
          21,
          22,
          23,
          24,
          25,
          26,
          27,
          28,
          29,
          30,
          31,
          32,
          33,
          34,
          35,
          36,
          37,
          38,
          39,
          40,
          41,
          42,
          43,
          44,
          45,
          46,
          47,
          48,
          49,
          50,
          51,
          52,
          53,
          54,
          55,
          56,
          57,
          58,
          59,
          60,
          61,
          62,
          63,
          64,
          65,
          66,
          67,
          68,
          69,
          70,
          71,
          72,
          73,
          74,
          75,
          76,
          77,
          78,
          79,
          80,
          81,
          82,
          83,
          84,
          85,
          86,
          87,
          88,
          89,
          90,
          91,
          92,
          93,
          94,
          95,
          96,
          97,
          98,
          99,
          100,
          101,
          102,
          103,
          104,
          105,
          106,
          107,
          108,
          109,
          110,
          111,
          112,
          113,
          114,
          115,
          116,
          117,
          118,
          119,
          120,
          121,
          122,
          123,
          124,
          125,
          126,
          127,
          128,
          129,
          130,
          131,
          132,
          133,
          134,
          135,
          136,
          137,
          138,
          139,
          140,
          141,
          142,
          143,
          144,
          145,
          146,
          147,
          148,
          149,
          150,
          151,
          152,
          153,
          154,
          155,
          156,
          157,
          158,
          159,
          160,
          161,
          162,
          163,
          164
        ],
        "LargestImagePixelValue": [
          1347,
          1252,
          1242,
          1250,
          1544,
          1335,
          1257,
          1247,
          1254,
          1689,
          1296,
          1254,
          1239,
          1232,
          1226,
          1461,
          1251,
          1361,
          1507,
          1327,
          1390,
          1259,
          1250,
          1265,
          1244,
          1239,
          1241,
          1262,
          1261,
          1278,
          1285,
          1398,
          1232,
          1273,
          1409,
          1217,
          1239,
          1199,
          1168,
          1158,
          1265,
          1228,
          1403,
          1208,
          1212,
          1251,
          1192,
          1540,
          1232,
          1252,
          1167,
          1248,
          1351,
          1257,
          1273,
          1190,
          1304,
          1254,
          1181,
          1352,
          1349,
          1766,
          1447,
          1271,
          1204,
          1481,
          1286,
          1203,
          1203,
          1411,
          1316,
          1320,
          1192,
          1180,
          1218,
          1556,
          1241,
          1454,
          1368,
          1411,
          1329,
          1418,
          1190,
          1203,
          1194,
          1304,
          1247,
          1191,
          1232,
          1446,
          1281,
          1280,
          1220,
          1522,
          1279,
          1248,
          1173,
          1323,
          1175,
          1371,
          1160,
          1312,
          1267,
          1200,
          1238,
          1151,
          1158,
          1170,
          1362,
          1226,
          1239,
          1206,
          1246,
          1207,
          1211,
          1203,
          1237,
          1208,
          1279,
          1217,
          1216,
          1203,
          1272,
          1238,
          1212,
          1191,
          1214,
          1222,
          1179,
          1172,
          1348,
          1330,
          1237,
          1200,
          1344,
          1361,
          1405,
          1268,
          1244,
          1200,
          1259,
          1246,
          1178,
          1279,
          1193,
          1238,
          1217,
          1194,
          1183,
          1220,
          1237,
          1265,
          1271,
          1240,
          1324,
          1282,
          1289,
          1238,
          1179,
          1285,
          1345,
          1279,
          1280,
          1343
        ],
        "WindowCenter": [
          605.0,
          604.0,
          604.0,
          604.0,
          603.0,
          603.0,
          604.0,
          605.0,
          603.0,
          604.0,
          603.0,
          602.0,
          601.0,
          602.0,
          602.0,
          605.0,
          604.0,
          604.0,
          603.0,
          602.0,
          601.0,
          602.0,
          602.0,
          603.0,
          602.0,
          602.0,
          603.0,
          603.0,
          603.0,
          604.0,
          601.0,
          601.0,
          600.0,
          600.0,
          601.0,
          600.0,
          600.0,
          592.0,
          595.0,
          595.0,
          596.0,
          596.0,
          593.0,
          603.0,
          601.0,
          601.0,
          601.0,
          600.0,
          600.0,
          600.0,
          599.0,
          600.0,
          597.0,
          601.0,
          601.0,
          588.0,
          592.0,
          599.0,
          593.0,
          583.0,
          587.0,
          606.0,
          598.0,
          598.0,
          601.0,
          602.0,
          606.0,
          596.0,
          600.0,
          601.0,
          601.0,
          600.0,
          601.0,
          601.0,
          601.0,
          602.0,
          600.0,
          601.0,
          602.0,
          603.0,
          601.0,
          599.0,
          599.0,
          599.0,
          602.0,
          602.0,
          601.0,
          600.0,
          600.0,
          601.0,
          600.0,
          601.0,
          601.0,
          602.0,
          600.0,
          600.0,
          600.0,
          602.0,
          602.0,
          591.0,
          569.0,
          613.0,
          601.0,
          602.0,
          594.0,
          599.0,
          601.0,
          601.0,
          602.0,
          602.0,
          604.0,
          603.0,
          603.0,
          601.0,
          601.0,
          602.0,
          601.0,
          601.0,
          601.0,
          602.0,
          603.0,
          602.0,
          600.0,
          600.0,
          599.0,
          603.0,
          603.0,
          601.0,
          601.0,
          602.0,
          603.0,
          602.0,
          601.0,
          602.0,
          601.0,
          602.0,
          602.0,
          601.0,
          602.0,
          603.0,
          603.0,
          603.0,
          604.0,
          603.0,
          602.0,
          603.0,
          603.0,
          603.0,
          603.0,
