{
  "aor": 0.012105121951219513,
  "aqi": 0.017808485609756102,
  "bids_meta": {
    "AcquisitionMatrixPE": 64,
    "AcquisitionNumber": 1,
    "AcquisitionTime": "13:39:1.995000",
    "BandwidthPerPixelPhaseEncode": 26.483,
    "BaseResolution": 64,
    "BodyPartExamined": "HEAD",
    "CogAtlasID": "TODO",
    "ConversionSoftware": "dcm2niix",
    "ConversionSoftwareVersion": "v1.0.20171017 GCC6.3.0",
    "DerivedVendorReportedEchoSpacing": 0.000590001,
    "DeviceSerialNumber": "35177",
    "DwellTime": 4.1e-06,
    "EchoTime": 0.027,
    "EffectiveEchoSpacing": 0.000590001,
    "FlipAngle": 90,
    "ImageOrientationPatientDICOM": [
      0.99676,
      -0.000540161,
      -0.0804348,
      0.0113085,
      0.990987,
      0.133482
    ],
    "ImageType": [
      "ORIGINAL",
      "PRIMARY",
      "M",
      "ND",
      "NORM",
      "MOSAIC"
    ],
    "InPlanePhaseEncodingDirectionDICOM": "COL",
    "InstitutionAddress": "Scott_Ave._4525_St._Louis_MO_US_63110",
    "InstitutionName": "Washington_University",
    "InstitutionalDepartmentName": "Department",
    "MRAcquisitionType": "2D",
    "MagneticFieldStrength": 3,
    "Manufacturer": "Siemens",
    "ManufacturersModelName": "TrioTim",
    "Modality": "MR",
    "PartialFourier": 1,
    "PatientPosition": "HFS",
    "PercentPhaseFOV": 100,
    "PhaseEncodingDirection": "j-",
    "PhaseEncodingSteps": 64,
    "PhaseResolution": 1,
    "PixelBandwidth": 1905,
    "ProcedureStepDescription": "head_GREENE",
    "ProtocolName": "ep2d_bold_rest1",
    "PulseSequenceDetails": "%SiemensSeq%_ep2d_bold",
    "ReceiveCoilName": "HeadMatrix",
    "ReconMatrixPE": 64,
    "RepetitionTime": 2.5,
    "SAR": 0.14361,
    "ScanOptions": "FS",
    "ScanningSequence": "EP",
    "SequenceName": "_epfid2d1_64",
    "SequenceVariant": "SK",
    "SeriesDescription": "ep2d_bold_rest1",
    "SeriesNumber": 5,
    "ShimSetting": [
      -247,
      -19573,
      8096,
      439,
      162,
      -14,
      187,
      18
    ],
    "SliceThickness": 4,
    "SliceTiming": [
      1.255,
      0,
      1.335,
      0.08,
      1.4125,
      0.1575,
      1.49,
      0.2375,
      1.57,
      0.315,
      1.6475,
      0.3925,
      1.7275,
      0.4725,
      1.805,
      0.55,
      1.8825,
      0.6275,
      1.9625,
      0.7075,
      2.04,
      0.785,
      2.1175,
      0.865,
      2.1975,
      0.9425,
      2.275,
      1.02,
      2.355,
      1.1,
      2.4325,
      1.1775
    ],
    "SoftwareVersions": "syngo_MR_B17",
    "SpacingBetweenSlices": 4,
    "StationName": "MRC35177",
    "TaskName": "restbaseline",
    "TotalReadoutTime": 0.0371701,
    "TxRefAmp": 353.169,
    "dataset": "ds000256",
    "dcmmeta_affine": [
      [
        -3.9870388507843018,
        0.04523400589823723,
        -0.3185510039329529,
        131.1153564453125
      ],
      [
        0.0021606453228741884,
        3.963947057723999,
        0.5358344316482544,
        -136.75184631347656
      ],
      [
        -0.3217393457889557,
        -0.5339261889457703,
        3.95112681388855,
        3.1323585510253906
      ],
      [
        0.0,
        0.0,
        0.0,
        1.0
      ]
    ],
    "dcmmeta_reorient_transform": [
      [
        0.0,
        -1.0,
        0.0,
        63.0
      ],
      [
        1.0,
        0.0,
        0.0,
        0.0
      ],
      [
        0.0,
        0.0,
        1.0,
        0.0
      ],
      [
        0.0,
        0.0,
        0.0,
        1.0
      ]
    ],
    "dcmmeta_shape": [
      64,
      64,
      32,
      164
    ],
    "dcmmeta_slice_dim": 2,
    "dcmmeta_version": 0.6,
    "global": {
      "const": {
        "AccessionNumber": ".",
        "AcquisitionMatrix": [
          64,
          0,
          0,
          64
        ],
        "AngioFlag": "N",
        "BitsAllocated": 16,
        "BitsStored": 12,
        "BodyPartExamined": "HEAD",
        "Columns": 384,
        "DeidentificationMethodCodeSequence": [
          {
            "CodeMeaning": "XNAT Edit Script",
            "CodeValue": "625500",
            "CodingSchemeDesignator": "XNAT",
            "CodingSchemeVersion": "0.1"
          }
        ],
        "EchoNumbers": 1,
        "EchoTime": 27.0,
        "EchoTrainLength": 1,
        "FlipAngle": 90.0,
        "HighBit": 11,
        "ImageOrientationPatient": [
          0.99675972300084,
          -0.0005401613117,
          -0.0804348359173,
          0.01130850126388,
          0.99098677889418,
          0.13348154125612
        ],
        "ImagePositionPatient": [
          -779.12876785167,
          -746.86265306777,
          -64.454881296888
        ],
        "ImageType": [
          "ORIGINAL",
          "PRIMARY",
          "M",
          "ND",
          "NORM",
          "MOSAIC"
        ],
        "ImagedNucleus": "1H",
        "ImagingFrequency": 123.255837,
        "InPlanePhaseEncodingDirection": "COL",
        "MRAcquisitionType": "2D",
        "MagneticFieldStrength": 3.0,
        "Manufacturer": "SIEMENS",
        "ManufacturerModelName": "TrioTim",
        "Modality": "MR",
        "NumberOfAverages": 1.0,
        "NumberOfPhaseEncodingSteps": 64,
        "PercentPhaseFieldOfView": 100.0,
        "PercentSampling": 100.0,
        "PerformedProcedureStepStartTime": "133015.734000",
        "PhotometricInterpretation": "MONOCHROME2",
        "PixelBandwidth": 1905.0,
        "PixelRepresentation": 0,
        "PixelSpacing": [
          4.0,
          4.0
        ],
        "PositionReferenceIndicator": "",
        "ProtocolName": "ep2d_bold_rest1",
        "RepetitionTime": 2500.0,
        "Rows": 384,
        "SAR": 0.14361029609994,
        "SamplesPerPixel": 1,
        "ScanOptions": "FS",
        "ScanningSequence": "EP",
        "SequenceName": "*epfid2d1_64",
        "SequenceVariant": "SK",
        "SeriesDescription": "ep2d_bold_rest1",
        "SeriesNumber": 5,
        "SeriesTime": "133904.015000",
        "SliceLocation": -25.666735987363,
        "SliceThickness": 4.0,
        "SmallestImagePixelValue": 0,
        "SoftwareVersions": "syngo MR B17",
        "SpacingBetweenSlices": 3.9999995763477,
        "SpecificCharacterSet": "ISO_IR 100",
        "StudyID": "1",
        "StudyTime": "133015.687000",
        "TransmitCoilName": "Body",
        "VariableFlipAngleFlag": "N",
        "WindowCenterWidthExplanation": "Algo1",
        "dBdt": 0.0
      },
      "slices": {}
    },
    "modality": "bold",
    "subject_id": "CTS208",
    "task_id": "restbaseline",
    "time": {
      "samples": {
        "AcquisitionNumber": [
          1,
          2,
          3,
          4,
          5,
          6,
          7,
          8,
          9,
          10,
          11,
          12,
          13,
          14,
          15,
          16,
          17,
          18,
          19,
          20,
          21,
          22,
          23,
          24,
          25,
          26,
          27,
          28,
          29,
          30,
          31,
          32,
          33,
          34,
          35,
          36,
          37,
          38,
          39,
          40,
          41,
          42,
          43,
          44,
          45,
          46,
          47,
          48,
          49,
          50,
          51,
          52,
          53,
          54,
          55,
          56,
          57,
          58,
          59,
          60,
          61,
          62,
          63,
          64,
          65,
          66,
          67,
          68,
          69,
          70,
          71,
          72,
          73,
          74,
          75,
          76,
          77,
          78,
          79,
          80,
          81,
          82,
          83,
          84,
          85,
          86,
          87,
          88,
          89,
          90,
          91,
          92,
          93,
          94,
          95,
          96,
          97,
          98,
          99,
          100,
          101,
          102,
          103,
          104,
          105,
          106,
          107,
          108,
          109,
          110,
          111,
          112,
          113,
          114,
          115,
          116,
          117,
          118,
          119,
          120,
          121,
          122,
          123,
          124,
          125,
          126,
          127,
          128,
          129,
          130,
          131,
          132,
          133,
          134,
          135,
          136,
          137,
          138,
          139,
          140,
          141,
          142,
          143,
          144,
          145,
          146,
          147,
          148,
          149,
          150,
          151,
          152,
          153,
          154,
          155,
          156,
          157,
          158,
          159,
          160,
          161,
          162,
          163,
          164
        ],
        "AcquisitionTime": [
          "133901.995000",
          "133904.505000",
          "133907.015000",
          "133909.525000",
          "133912.035000",
          "133914.545000",
          "133917.055000",
          "133919.565000",
          "133922.077500",
          "133924.587500",
          "133927.097500",
          "133929.607500",
          "133932.117500",
          "133934.627500",
          "133937.137500",
          "133939.647500",
          "133942.157500",
          "133944.667500",
          "133947.177500",
          "133949.687500",
          "133952.197500",
          "133954.707500",
          "133957.217500",
          "133959.727500",
          "134002.237500",
          "134004.747500",
          "134007.257500",
          "134009.767500",
          "134012.277500",
          "134014.787500",
          "134017.297500",
          "134019.807500",
          "134022.317500",
          "134024.827500",
          "134027.337500",
          "134029.847500",
          "134032.357500",
          "134034.867500",
          "134037.377500",
          "134039.887500",
          "134042.397500",
          "134044.907500",
          "134047.417500",
          "134049.927500",
          "134052.437500",
          "134054.947500",
          "134057.457500",
          "134059.967500",
          "134102.477500",
          "134104.987500",
          "134107.497500",
          "134110.007500",
          "134112.517500",
          "134115.027500",
          "134117.537500",
          "134120.047500",
          "134122.557500",
          "134125.067500",
          "134127.577500",
          "134130.087500",
          "134132.597500",
          "134135.107500",
          "134137.617500",
          "134140.127500",
          "134142.637500",
          "134145.147500",
          "134147.657500",
          "134150.167500",
          "134152.677500",
          "134155.187500",
          "134157.697500",
          "134200.210000",
          "134202.720000",
          "134205.230000",
          "134207.740000",
          "134210.250000",
          "134212.760000",
          "134215.270000",
          "134217.780000",
          "134220.290000",
          "134222.800000",
          "134225.310000",
          "134227.820000",
          "134230.330000",
          "134232.840000",
          "134235.350000",
          "134237.860000",
          "134240.370000",
          "134242.880000",
          "134245.390000",
          "134247.900000",
          "134250.410000",
          "134252.920000",
          "134255.430000",
          "134257.940000",
          "134300.450000",
          "134302.960000",
          "134305.470000",
          "134307.980000",
          "134310.490000",
          "134313.000000",
          "134315.510000",
          "134318.020000",
          "134320.530000",
          "134323.040000",
          "134325.550000",
          "134328.060000",
          "134330.570000",
          "134333.080000",
          "134335.590000",
          "134338.100000",
          "134340.610000",
          "134343.120000",
          "134345.630000",
          "134348.140000",
          "134350.650000",
          "134353.160000",
          "134355.670000",
          "134358.180000",
          "134400.690000",
          "134403.200000",
          "134405.710000",
          "134408.220000",
          "134410.730000",
          "134413.240000",
          "134415.750000",
          "134418.260000",
          "134420.770000",
          "134423.280000",
          "134425.790000",
          "134428.300000",
          "134430.810000",
          "134433.320000",
          "134435.832500",
          "134438.342500",
          "134440.852500",
          "134443.362500",
          "134445.872500",
          "134448.382500",
          "134450.892500",
          "134453.402500",
          "134455.912500",
          "134458.422500",
          "134500.932500",
          "134503.442500",
          "134505.952500",
          "134508.462500",
          "134510.972500",
          "134513.482500",
          "134515.992500",
          "134518.502500",
          "134521.012500",
          "134523.522500",
          "134526.032500",
          "134528.542500",
          "134531.052500",
          "134533.562500",
          "134536.072500",
          "134538.582500",
          "134541.092500",
          "134543.602500",
          "134546.112500",
          "134548.622500",
          "134551.132500"
        ],
        "ContentTime": [
          "133904.031000",
          "133906.515000",
          "133909.015000",
          "133911.515000",
          "133914.015000",
          "133916.515000",
          "133919.015000",
          "133921.515000",
          "133924.015000",
          "133926.515000",
          "133929.015000",
          "133931.515000",
          "133934.015000",
          "133936.515000",
          "133939.015000",
          "133941.515000",
          "133944.015000",
          "133946.515000",
          "133949.015000",
          "133951.515000",
          "133954.015000",
          "133956.515000",
          "133959.015000",
          "134001.515000",
          "134004.015000",
          "134006.515000",
          "134009.015000",
          "134011.515000",
          "134014.015000",
          "134016.515000",
          "134019.015000",
          "134021.515000",
          "134024.015000",
          "134026.515000",
          "134029.015000",
          "134031.515000",
          "134034.015000",
          "134036.515000",
          "134039.015000",
          "134041.515000",
          "134044.015000",
          "134046.515000",
          "134049.015000",
          "134051.515000",
          "134054.015000",
          "134056.515000",
          "134059.015000",
          "134101.515000",
          "134104.015000",
          "134106.515000",
          "134109.015000",
          "134111.515000",
          "134114.015000",
          "134116.515000",
          "134119.015000",
          "134121.515000",
          "134124.015000",
          "134126.515000",
          "134129.015000",
          "134131.515000",
          "134134.015000",
          "134136.515000",
          "134139.015000",
          "134141.515000",
          "134144.015000",
          "134146.515000",
          "134149.015000",
          "134151.515000",
          "134154.015000",
          "134156.515000",
          "134159.015000",
          "134201.515000",
          "134204.015000",
          "134206.515000",
          "134209.015000",
          "134211.515000",
          "134214.015000",
          "134216.515000",
          "134219.015000",
          "134221.515000",
          "134224.015000",
          "134226.515000",
          "134229.015000",
          "134231.515000",
          "134234.015000",
          "134236.515000",
          "134239.015000",
          "134241.515000",
          "134244.015000",
          "134246.515000",
          "134249.015000",
          "134251.515000",
          "134254.015000",
          "134256.515000",
          "134259.015000",
          "134301.515000",
          "134304.015000",
          "134306.515000",
          "134309.015000",
          "134311.515000",
          "134314.015000",
          "134316.515000",
          "134319.015000",
          "134321.515000",
          "134324.015000",
          "134326.515000",
          "134329.015000",
          "134331.515000",
          "134334.015000",
          "134336.515000",
          "134339.015000",
          "134341.515000",
          "134344.015000",
          "134346.515000",
          "134349.015000",
          "134351.515000",
          "134354.015000",
          "134356.515000",
          "134359.015000",
          "134401.515000",
          "134404.015000",
          "134406.515000",
          "134409.015000",
          "134411.515000",
          "134414.015000",
          "134416.515000",
          "134419.015000",
          "134421.515000",
          "134424.015000",
          "134426.515000",
          "134429.015000",
          "134431.515000",
          "134434.015000",
          "134436.515000",
          "134439.015000",
          "134441.515000",
          "134444.015000",
          "134446.515000",
          "134449.015000",
          "134451.515000",
          "134454.015000",
          "134456.515000",
          "134459.015000",
          "134501.515000",
          "134504.015000",
          "134506.515000",
          "134509.015000",
          "134511.515000",
          "134514.015000",
          "134516.515000",
          "134519.015000",
          "134521.515000",
          "134524.015000",
          "134526.515000",
          "134529.015000",
          "134531.515000",
          "134534.015000",
          "134536.515000",
          "134539.015000",
          "134541.515000",
          "134544.015000",
          "134546.515000",
          "134549.015000",
          "134551.406000"
        ],
        "InstanceCreationTime": [
          "133904.031000",
          "133906.515000",
          "133909.015000",
          "133911.515000",
          "133914.015000",
          "133916.515000",
          "133919.015000",
          "133921.515000",
          "133924.015000",
          "133926.515000",
          "133929.015000",
          "133931.515000",
          "133934.015000",
          "133936.515000",
          "133939.015000",
          "133941.515000",
          "133944.015000",
          "133946.515000",
          "133949.015000",
          "133951.515000",
          "133954.015000",
          "133956.515000",
          "133959.015000",
          "134001.515000",
          "134004.015000",
          "134006.515000",
          "134009.015000",
          "134011.515000",
          "134014.015000",
          "134016.515000",
          "134019.015000",
          "134021.515000",
          "134024.015000",
          "134026.515000",
          "134029.015000",
          "134031.515000",
          "134034.015000",
          "134036.515000",
          "134039.015000",
          "134041.515000",
          "134044.015000",
          "134046.515000",
          "134049.015000",
          "134051.515000",
          "134054.015000",
          "134056.515000",
          "134059.015000",
          "134101.515000",
          "134104.015000",
          "134106.515000",
          "134109.015000",
          "134111.515000",
          "134114.015000",
          "134116.515000",
          "134119.015000",
          "134121.515000",
          "134124.015000",
          "134126.515000",
          "134129.015000",
          "134131.515000",
          "134134.015000",
          "134136.515000",
          "134139.015000",
          "134141.515000",
          "134144.015000",
          "134146.515000",
          "134149.015000",
          "134151.515000",
          "134154.015000",
          "134156.515000",
          "134159.015000",
          "134201.515000",
          "134204.015000",
          "134206.515000",
          "134209.015000",
          "134211.515000",
          "134214.015000",
          "134216.515000",
          "134219.015000",
          "134221.515000",
          "134224.015000",
          "134226.515000",
          "134229.015000",
          "134231.515000",
          "134234.015000",
          "134236.515000",
          "134239.015000",
          "134241.515000",
          "134244.015000",
          "134246.515000",
          "134249.015000",
          "134251.515000",
          "134254.015000",
          "134256.515000",
          "134259.015000",
          "134301.515000",
          "134304.015000",
          "134306.515000",
          "134309.015000",
          "134311.515000",
          "134314.015000",
          "134316.515000",
          "134319.015000",
          "134321.515000",
          "134324.015000",
          "134326.515000",
          "134329.015000",
          "134331.515000",
          "134334.015000",
          "134336.515000",
          "134339.015000",
          "134341.515000",
          "134344.015000",
          "134346.515000",
          "134349.015000",
          "134351.515000",
          "134354.015000",
          "134356.515000",
          "134359.015000",
          "134401.515000",
          "134404.015000",
          "134406.515000",
          "134409.015000",
          "134411.515000",
          "134414.015000",
          "134416.515000",
          "134419.015000",
          "134421.515000",
          "134424.015000",
          "134426.515000",
          "134429.015000",
          "134431.515000",
          "134434.015000",
          "134436.515000",
          "134439.015000",
          "134441.515000",
          "134444.015000",
          "134446.515000",
          "134449.015000",
          "134451.515000",
          "134454.015000",
          "134456.515000",
          "134459.015000",
          "134501.515000",
          "134504.015000",
          "134506.515000",
          "134509.015000",
          "134511.515000",
          "134514.015000",
          "134516.515000",
          "134519.015000",
          "134521.515000",
          "134524.015000",
          "134526.515000",
          "134529.015000",
          "134531.515000",
          "134534.015000",
          "134536.515000",
          "134539.015000",
          "134541.515000",
          "134544.015000",
          "134546.515000",
          "134549.015000",
          "134551.406000"
        ],
        "InstanceNumber": [
          1,
          2,
          3,
          4,
          5,
          6,
          7,
          8,
          9,
          10,
          11,
          12,
          13,
          14,
          15,
          16,
          17,
          18,
          19,
          20,
          21,
          22,
          23,
          24,
          25,
          26,
          27,
          28,
          29,
          30,
          31,
          32,
          33,
          34,
          35,
          36,
          37,
          38,
          39,
          40,
          41,
          42,
          43,
          44,
          45,
          46,
          47,
          48,
          49,
          50,
          51,
          52,
          53,
          54,
          55,
          56,
          57,
          58,
          59,
          60,
          61,
          62,
          63,
          64,
          65,
          66,
          67,
          68,
          69,
          70,
          71,
          72,
          73,
          74,
          75,
          76,
          77,
          78,
          79,
          80,
          81,
          82,
          83,
          84,
          85,
          86,
          87,
          88,
          89,
          90,
          91,
          92,
          93,
          94,
          95,
          96,
          97,
          98,
          99,
          100,
          101,
          102,
          103,
          104,
          105,
          106,
          107,
          108,
          109,
          110,
          111,
          112,
          113,
          114,
          115,
          116,
          117,
          118,
          119,
          120,
          121,
          122,
          123,
          124,
          125,
          126,
          127,
          128,
          129,
          130,
          131,
          132,
          133,
          134,
          135,
          136,
          137,
          138,
          139,
          140,
          141,
          142,
          143,
          144,
          145,
          146,
          147,
          148,
          149,
          150,
          151,
          152,
          153,
          154,
          155,
          156,
          157,
          158,
          159,
          160,
          161,
          162,
          163,
          164
        ],
        "LargestImagePixelValue": [
          1209,
          1191,
          1219,
          1217,
          1274,
          1204,
          1177,
          1214,
          1166,
          1192,
          1196,
          1172,
          1198,
          1187,
          1360,
          1209,
          1169,
          1214,
          1174,
          1210,
          1217,
          1244,
          1238,
          1246,
          1210,
          1235,
          1264,
          1227,
          1264,
          1231,
          1277,
          1231,
          1218,
          1194,
          1210,
          1234,
          1224,
          1211,
          1200,
          1191,
          1261,
          1227,
          1237,
          1219,
          1246,
          1212,
          1217,
          1246,
          1208,
          1222,
          1218,
          1227,
          1249,
          1288,
          1202,
          1425,
          1216,
          1198,
          1190,
          1263,
          1216,
          1212,
          1232,
          1229,
          1203,
          1205,
          1223,
          1219,
          1196,
          1230,
          1192,
          1240,
          1226,
          1214,
          1220,
          1211,
          1226,
          1197,
          1211,
          1229,
          1204,
          1242,
          1221,
          1194,
          1230,
          1198,
          1275,
          1196,
          1262,
          1215,
          1192,
          1295,
          1243,
          1190,
          1198,
          1278,
          1177,
          1206,
          1180,
          1189,
          1214,
          1217,
          1285,
          1196,
          1261,
          1180,
          1215,
          1262,
          1205,
          1208,
          1224,
          1218,
          1246,
          1210,
          1434,
          1196,
          1226,
          1194,
          1241,
          1244,
          1216,
          1211,
          1244,
          1199,
          1207,
          1203,
          1217,
          1209,
          1201,
          1226,
          1338,
          1252,
          1259,
          1210,
          1208,
          1186,
          1221,
          1247,
          1260,
          1361,
          1198,
          1224,
          1222,
          1228,
          1255,
          1264,
          1224,
          1241,
          1229,
          1229,
          1223,
          1239,
          1253,
          1253,
          1208,
          1203,
          1331,
          1296,
          1191,
          1208,
          1271,
          1225,
          1207,
          1232
        ],
        "WindowCenter": [
          601.0,
          601.0,
          600.0,
          601.0,
          601.0,
          600.0,
          601.0,
          601.0,
          600.0,
          601.0,
          601.0,
          601.0,
          600.0,
          599.0,
          601.0,
          600.0,
          601.0,
          601.0,
          600.0,
          602.0,
          601.0,
          601.0,
          600.0,
          601.0,
          600.0,
          600.0,
          599.0,
          600.0,
          601.0,
          601.0,
          601.0,
          600.0,
          600.0,
          601.0,
          601.0,
          601.0,
          600.0,
          600.0,
          599.0,
          600.0,
          601.0,
          600.0,
          600.0,
          600.0,
          600.0,
          600.0,
          600.0,
          600.0,
          600.0,
          599.0,
          600.0,
          602.0,
          601.0,
          600.0,
          600.0,
          600.0,
          599.0,
          600.0,
          599.0,
          598.0,
          601.0,
          601.0,
          601.0,
          600.0,
          601.0,
          601.0,
          600.0,
          600.0,
          600.0,
          601.0,
          601.0,
          602.0,
          601.0,
          601.0,
          600.0,
          602.0,
          602.0,
          602.0,
          601.0,
          602.0,
          600.0,
          601.0,
          600.0,
          600.0,
          600.0,
          600.0,
          600.0,
          600.0,
          601.0,
          601.0,
          601.0,
          602.0,
          601.0,
          601.0,
          600.0,
          600.0,
          601.0,
          601.0,
          600.0,
          600.0,
          600.0,
          601.0,
          601.0,
          600.0,
          600.0,
          600.0,
          601.0,
          601.0,
          601.0,
          601.0,
          601.0,
          601.0,
          601.0,
          602.0,
          601.0,
          598.0,
          599.0,
          601.0,
          600.0,
          599.0,
          599.0,
          599.0,
          601.0,
          601.0,
          601.0,
          601.0,
          601.0,
          601.0,
          601.0,
          601.0,
          601.0,
          601.0,
          601.0,
          600.0,
          600.0,
          600.0,
          600.0,
          600.0,
          601.0,
          600.0,
          601.0,
          600.0,
          601.0,
          600.0,
          600.0,
          600.0,
          602.0,
          601.0,
          601.0,
          601.0,
          600.0,
