{
  "aor": 0.004423024691358025,
  "aqi": 0.005189176913580247,
  "bids_meta": {
    "AcquisitionMatrixPE": 64,
    "AcquisitionNumber": 1,
    "AcquisitionTime": "14:29:51.880000",
    "BandwidthPerPixelPhaseEncode": 26.483,
    "BaseResolution": 64,
    "BodyPartExamined": "HEAD",
    "CogAtlasID": "TODO",
    "ConversionSoftware": "dcm2niix",
    "ConversionSoftwareVersion": "v1.0.20171017 GCC6.3.0",
    "DerivedVendorReportedEchoSpacing": 0.000590001,
    "DeviceSerialNumber": "35177",
    "DwellTime": 4.1e-06,
    "EchoTime": 0.027,
    "EffectiveEchoSpacing": 0.000590001,
    "FlipAngle": 90,
    "ImageOrientationPatientDICOM": [
      0.998027,
      0.0455957,
      0.0431735,
      -0.056165,
      0.955658,
      0.289074
    ],
    "ImageType": [
      "ORIGINAL",
      "PRIMARY",
      "M",
      "ND",
      "NORM",
      "MOSAIC"
    ],
    "InPlanePhaseEncodingDirectionDICOM": "COL",
    "InstitutionAddress": "Scott_Ave._4525_St._Louis_MO_US_63110",
    "InstitutionName": "Washington_University",
    "InstitutionalDepartmentName": "Department",
    "MRAcquisitionType": "2D",
    "MagneticFieldStrength": 3,
    "Manufacturer": "Siemens",
    "ManufacturersModelName": "TrioTim",
    "Modality": "MR",
    "PartialFourier": 1,
    "PatientPosition": "HFS",
    "PercentPhaseFOV": 100,
    "PhaseEncodingDirection": "j-",
    "PhaseEncodingSteps": 64,
    "PhaseResolution": 1,
    "PixelBandwidth": 1905,
    "ProcedureStepDescription": "head_GREENE",
    "ProtocolName": "ep2d_bold_ad_rest",
    "PulseSequenceDetails": "%SiemensSeq%_ep2d_bold",
    "ReceiveCoilName": "HeadMatrix",
    "ReconMatrixPE": 64,
    "RepetitionTime": 2.5,
    "SAR": 0.15792,
    "ScanOptions": "FS",
    "ScanningSequence": "EP",
    "SequenceName": "_epfid2d1_64",
    "SequenceVariant": "SK",
    "SeriesDescription": "ep2d_bold_ad_rest",
    "SeriesNumber": 11,
    "ShimSetting": [
      -212,
      -19588,
      8007,
      441,
      122,
      -326,
      -139,
      -25
    ],
    "SliceThickness": 4,
    "SliceTiming": [
      1.2525,
      0,
      1.3325,
      0.0775,
      1.41,
      0.155,
      1.49,
      0.235,
      1.5675,
      0.3125,
      1.645,
      0.39,
      1.725,
      0.47,
      1.8025,
      0.5475,
      1.88,
      0.625,
      1.96,
      0.705,
      2.0375,
      0.7825,
      2.115,
      0.8625,
      2.195,
      0.94,
      2.2725,
      1.0175,
      2.3525,
      1.0975,
      2.43,
      1.175
    ],
    "SoftwareVersions": "syngo_MR_B17",
    "SpacingBetweenSlices": 4,
    "StationName": "MRC35177",
    "TaskName": "restfixationadaptive",
    "TotalReadoutTime": 0.0371701,
    "TxRefAmp": 343.009,
    "dataset": "ds000256",
    "dcmmeta_affine": [
      [
        -3.9921064376831055,
        -0.22466008365154266,
        0.11231432110071182,
        136.10104370117188
      ],
      [
        -0.18238267302513123,
        3.8226311206817627,
        1.163712739944458,
        -115.7879638671875
      ],
      [
        0.17269401252269745,
        -1.1562951803207397,
        3.825331211090088,
        13.105631828308105
      ],
      [
        0.0,
        0.0,
        0.0,
        1.0
      ]
    ],
    "dcmmeta_reorient_transform": [
      [
        0.0,
        -1.0,
        0.0,
        63.0
      ],
      [
        1.0,
        0.0,
        0.0,
        0.0
      ],
      [
        0.0,
        0.0,
        1.0,
        0.0
      ],
      [
        0.0,
        0.0,
        0.0,
        1.0
      ]
    ],
    "dcmmeta_shape": [
      64,
      64,
      32,
      164
    ],
    "dcmmeta_slice_dim": 2,
    "dcmmeta_version": 0.6,
    "global": {
      "const": {
        "AccessionNumber": ".",
        "AcquisitionMatrix": [
          64,
          0,
          0,
          64
        ],
        "AngioFlag": "N",
        "BitsAllocated": 16,
        "BitsStored": 12,
        "BodyPartExamined": "HEAD",
        "Columns": 384,
        "DeidentificationMethodCodeSequence": [
          {
            "CodeMeaning": "XNAT Edit Script",
            "CodeValue": "625500",
            "CodingSchemeDesignator": "XNAT",
            "CodingSchemeVersion": "0.1"
          }
        ],
        "EchoNumbers": 1,
        "EchoTime": 27.0,
        "EchoTrainLength": 1,
        "FlipAngle": 90.0,
        "HighBit": 11,
        "ImageOrientationPatient": [
          0.99802659465083,
          0.04559566974834,
          0.04317350194114,
          -0.0561650222241,
          0.95565779658628,
          0.28907380736141
        ],
        "ImagePositionPatient": [
          -724.73886697266,
          -765.84002010473,
          -272.37924569341
        ],
        "ImageType": [
          "ORIGINAL",
          "PRIMARY",
          "M",
          "ND",
          "NORM",
          "MOSAIC"
        ],
        "ImagedNucleus": "1H",
        "ImagingFrequency": 123.255869,
        "InPlanePhaseEncodingDirection": "COL",
        "MRAcquisitionType": "2D",
        "MagneticFieldStrength": 3.0,
        "Manufacturer": "SIEMENS",
        "ManufacturerModelName": "TrioTim",
        "Modality": "MR",
        "NumberOfAverages": 1.0,
        "NumberOfPhaseEncodingSteps": 64,
        "PercentPhaseFieldOfView": 100.0,
        "PercentSampling": 100.0,
        "PerformedProcedureStepStartTime": "133256.609000",
        "PhotometricInterpretation": "MONOCHROME2",
        "PixelBandwidth": 1905.0,
        "PixelRepresentation": 0,
        "PixelSpacing": [
          4.0,
          4.0
        ],
        "PositionReferenceIndicator": "",
        "ProtocolName": "ep2d_bold_ad_rest",
        "RepetitionTime": 2500.0,
        "Rows": 384,
        "SAR": 0.15792030170501,
        "SamplesPerPixel": 1,
        "ScanOptions": "FS",
        "ScanningSequence": "EP",
        "SequenceName": "*epfid2d1_64",
        "SequenceVariant": "SK",
        "SeriesDescription": "ep2d_bold_ad_rest",
        "SeriesNumber": 11,
        "SeriesTime": "142954.484000",
        "SliceLocation": -17.331113037268,
        "SliceThickness": 4.0,
        "SmallestImagePixelValue": 0,
        "SoftwareVersions": "syngo MR B17",
        "SpacingBetweenSlices": 4.0000001477151,
        "SpecificCharacterSet": "ISO_IR 100",
        "StudyID": "1",
        "StudyTime": "133256.562000",
        "TransmitCoilName": "Body",
        "VariableFlipAngleFlag": "N",
        "WindowCenterWidthExplanation": "Algo1",
        "dBdt": 0.0
      },
      "slices": {}
    },
    "modality": "bold",
    "subject_id": "CTS225",
    "task_id": "restfixationadaptive",
    "time": {
      "samples": {
        "AcquisitionNumber": [
          1,
          2,
          3,
          4,
          5,
          6,
          7,
          8,
          9,
          10,
          11,
          12,
          13,
          14,
          15,
          16,
          17,
          18,
          19,
          20,
          21,
          22,
          23,
          24,
          25,
          26,
          27,
          28,
          29,
          30,
          31,
          32,
          33,
          34,
          35,
          36,
          37,
          38,
          39,
          40,
          41,
          42,
          43,
          44,
          45,
          46,
          47,
          48,
          49,
          50,
          51,
          52,
          53,
          54,
          55,
          56,
          57,
          58,
          59,
          60,
          61,
          62,
          63,
          64,
          65,
          66,
          67,
          68,
          69,
          70,
          71,
          72,
          73,
          74,
          75,
          76,
          77,
          78,
          79,
          80,
          81,
          82,
          83,
          84,
          85,
          86,
          87,
          88,
          89,
          90,
          91,
          92,
          93,
          94,
          95,
          96,
          97,
          98,
          99,
          100,
          101,
          102,
          103,
          104,
          105,
          106,
          107,
          108,
          109,
          110,
          111,
          112,
          113,
          114,
          115,
          116,
          117,
          118,
          119,
          120,
          121,
          122,
          123,
          124,
          125,
          126,
          127,
          128,
          129,
          130,
          131,
          132,
          133,
          134,
          135,
          136,
          137,
          138,
          139,
          140,
          141,
          142,
          143,
          144,
          145,
          146,
          147,
          148,
          149,
          150,
          151,
          152,
          153,
          154,
          155,
          156,
          157,
          158,
          159,
          160,
          161,
          162,
          163,
          164
        ],
        "AcquisitionTime": [
          "142951.880000",
          "142954.390000",
          "142956.900000",
          "142959.410000",
          "143001.920000",
          "143004.430000",
          "143006.942500",
          "143009.452500",
          "143011.962500",
          "143014.472500",
          "143016.982500",
          "143019.492500",
          "143022.002500",
          "143024.512500",
          "143027.022500",
          "143029.532500",
          "143032.042500",
          "143034.552500",
          "143037.062500",
          "143039.572500",
          "143042.082500",
          "143044.592500",
          "143047.102500",
          "143049.612500",
          "143052.122500",
          "143054.632500",
          "143057.142500",
          "143059.652500",
          "143102.162500",
          "143104.672500",
          "143107.182500",
          "143109.692500",
          "143112.202500",
          "143114.712500",
          "143117.222500",
          "143119.732500",
          "143122.242500",
          "143124.752500",
          "143127.262500",
          "143129.772500",
          "143132.282500",
          "143134.792500",
          "143137.302500",
          "143139.812500",
          "143142.322500",
          "143144.832500",
          "143147.342500",
          "143149.852500",
          "143152.362500",
          "143154.872500",
          "143157.382500",
          "143159.892500",
          "143202.402500",
          "143204.912500",
          "143207.422500",
          "143209.932500",
          "143212.442500",
          "143214.952500",
          "143217.462500",
          "143219.972500",
          "143222.482500",
          "143224.992500",
          "143227.502500",
          "143230.012500",
          "143232.522500",
          "143235.032500",
          "143237.542500",
          "143240.052500",
          "143242.565000",
          "143245.075000",
          "143247.585000",
          "143250.095000",
          "143252.605000",
          "143255.115000",
          "143257.625000",
          "143300.135000",
          "143302.645000",
          "143305.155000",
          "143307.665000",
          "143310.175000",
          "143312.685000",
          "143315.195000",
          "143317.705000",
          "143320.215000",
          "143322.725000",
          "143325.235000",
          "143327.745000",
          "143330.255000",
          "143332.765000",
          "143335.275000",
          "143337.785000",
          "143340.295000",
          "143342.805000",
          "143345.315000",
          "143347.825000",
          "143350.335000",
          "143352.845000",
          "143355.355000",
          "143357.865000",
          "143400.375000",
          "143402.885000",
          "143405.395000",
          "143407.905000",
          "143410.415000",
          "143412.925000",
          "143415.435000",
          "143417.945000",
          "143420.455000",
          "143422.965000",
          "143425.475000",
          "143427.985000",
          "143430.495000",
          "143433.005000",
          "143435.515000",
          "143438.025000",
          "143440.535000",
          "143443.045000",
          "143445.555000",
          "143448.065000",
          "143450.575000",
          "143453.085000",
          "143455.595000",
          "143458.105000",
          "143500.615000",
          "143503.125000",
          "143505.635000",
          "143508.145000",
          "143510.655000",
          "143513.165000",
          "143515.675000",
          "143518.187500",
          "143520.697500",
          "143523.207500",
          "143525.717500",
          "143528.227500",
          "143530.737500",
          "143533.247500",
          "143535.757500",
          "143538.267500",
          "143540.777500",
          "143543.287500",
          "143545.797500",
          "143548.307500",
          "143550.817500",
          "143553.327500",
          "143555.837500",
          "143558.347500",
          "143600.857500",
          "143603.367500",
          "143605.877500",
          "143608.387500",
          "143610.897500",
          "143613.407500",
          "143615.917500",
          "143618.427500",
          "143620.937500",
          "143623.447500",
          "143625.957500",
          "143628.467500",
          "143630.977500",
          "143633.487500",
          "143635.997500",
          "143638.507500",
          "143641.017500"
        ],
        "ContentTime": [
          "142954.484000",
          "142956.984000",
          "142959.484000",
          "143001.984000",
          "143004.484000",
          "143006.984000",
          "143009.484000",
          "143011.984000",
          "143014.484000",
          "143016.984000",
          "143019.484000",
          "143021.984000",
          "143024.484000",
          "143026.984000",
          "143029.484000",
          "143031.984000",
          "143034.484000",
          "143036.984000",
          "143039.484000",
          "143041.984000",
          "143044.484000",
          "143046.984000",
          "143049.484000",
          "143051.984000",
          "143054.484000",
          "143056.984000",
          "143059.484000",
          "143101.984000",
          "143104.484000",
          "143106.984000",
          "143109.484000",
          "143111.984000",
          "143114.484000",
          "143116.984000",
          "143119.484000",
          "143121.984000",
          "143124.484000",
          "143126.984000",
          "143129.484000",
          "143131.984000",
          "143134.484000",
          "143136.984000",
          "143139.484000",
          "143141.984000",
          "143144.484000",
          "143146.984000",
          "143149.484000",
          "143151.984000",
          "143154.484000",
          "143156.984000",
          "143159.484000",
          "143201.984000",
          "143204.484000",
          "143206.984000",
          "143209.484000",
          "143211.984000",
          "143214.484000",
          "143216.984000",
          "143219.484000",
          "143221.984000",
          "143224.484000",
          "143226.984000",
          "143229.484000",
          "143231.984000",
          "143234.484000",
          "143236.984000",
          "143239.484000",
          "143241.984000",
          "143244.484000",
          "143246.984000",
          "143249.484000",
          "143251.984000",
          "143254.484000",
          "143256.984000",
          "143259.484000",
          "143301.984000",
          "143304.484000",
          "143306.984000",
          "143309.484000",
          "143311.984000",
          "143314.484000",
          "143316.984000",
          "143319.484000",
          "143321.984000",
          "143324.484000",
          "143326.984000",
          "143329.484000",
          "143331.984000",
          "143334.484000",
          "143336.984000",
          "143339.484000",
          "143341.984000",
          "143344.484000",
          "143346.984000",
          "143349.484000",
          "143351.984000",
          "143354.484000",
          "143356.984000",
          "143359.484000",
          "143401.984000",
          "143404.484000",
          "143406.984000",
          "143409.484000",
          "143411.984000",
          "143414.484000",
          "143416.984000",
          "143419.484000",
          "143421.984000",
          "143424.484000",
          "143426.984000",
          "143429.484000",
          "143431.984000",
          "143434.484000",
          "143436.984000",
          "143439.484000",
          "143441.984000",
          "143444.484000",
          "143446.984000",
          "143449.484000",
          "143451.984000",
          "143454.484000",
          "143456.984000",
          "143459.484000",
          "143501.984000",
          "143504.484000",
          "143506.984000",
          "143509.484000",
          "143511.984000",
          "143514.484000",
          "143516.984000",
          "143519.484000",
          "143521.984000",
          "143524.484000",
          "143526.984000",
          "143529.484000",
          "143531.984000",
          "143534.484000",
          "143536.984000",
          "143539.484000",
          "143541.984000",
          "143544.484000",
          "143546.984000",
          "143549.484000",
          "143551.984000",
          "143554.484000",
          "143556.984000",
          "143559.484000",
          "143601.984000",
          "143604.484000",
          "143606.984000",
          "143609.484000",
          "143611.984000",
          "143614.484000",
          "143616.984000",
          "143619.484000",
          "143621.984000",
          "143624.484000",
          "143626.984000",
          "143629.484000",
          "143631.984000",
          "143634.484000",
          "143636.984000",
          "143639.484000",
          "143641.671000"
        ],
        "InstanceCreationTime": [
          "142954.484000",
          "142956.984000",
          "142959.484000",
          "143001.984000",
          "143004.484000",
          "143006.984000",
          "143009.484000",
          "143011.984000",
          "143014.484000",
          "143016.984000",
          "143019.484000",
          "143021.984000",
          "143024.484000",
          "143026.984000",
          "143029.484000",
          "143031.984000",
          "143034.484000",
          "143036.984000",
          "143039.484000",
          "143041.984000",
          "143044.484000",
          "143046.984000",
          "143049.484000",
          "143051.984000",
          "143054.484000",
          "143056.984000",
          "143059.484000",
          "143101.984000",
          "143104.484000",
          "143106.984000",
          "143109.484000",
          "143111.984000",
          "143114.484000",
          "143116.984000",
          "143119.484000",
          "143121.984000",
          "143124.484000",
          "143126.984000",
          "143129.484000",
          "143131.984000",
          "143134.484000",
          "143136.984000",
          "143139.484000",
          "143141.984000",
          "143144.484000",
          "143146.984000",
          "143149.484000",
          "143151.984000",
          "143154.484000",
          "143156.984000",
          "143159.484000",
          "143201.984000",
          "143204.484000",
          "143206.984000",
          "143209.484000",
          "143211.984000",
          "143214.484000",
          "143216.984000",
          "143219.484000",
          "143221.984000",
          "143224.484000",
          "143226.984000",
          "143229.484000",
          "143231.984000",
          "143234.484000",
          "143236.984000",
          "143239.484000",
          "143241.984000",
          "143244.484000",
          "143246.984000",
          "143249.484000",
          "143251.984000",
          "143254.484000",
          "143256.984000",
          "143259.484000",
          "143301.984000",
          "143304.484000",
          "143306.984000",
          "143309.484000",
          "143311.984000",
          "143314.484000",
          "143316.984000",
          "143319.484000",
          "143321.984000",
          "143324.484000",
          "143326.984000",
          "143329.484000",
          "143331.984000",
          "143334.484000",
          "143336.984000",
          "143339.484000",
          "143341.984000",
          "143344.484000",
          "143346.984000",
          "143349.484000",
          "143351.984000",
          "143354.484000",
          "143356.984000",
          "143359.484000",
          "143401.984000",
          "143404.484000",
          "143406.984000",
          "143409.484000",
          "143411.984000",
          "143414.484000",
          "143416.984000",
          "143419.484000",
          "143421.984000",
          "143424.484000",
          "143426.984000",
          "143429.484000",
          "143431.984000",
          "143434.484000",
          "143436.984000",
          "143439.484000",
          "143441.984000",
          "143444.484000",
          "143446.984000",
          "143449.484000",
          "143451.984000",
          "143454.484000",
          "143456.984000",
          "143459.484000",
          "143501.984000",
          "143504.484000",
          "143506.984000",
          "143509.484000",
          "143511.984000",
          "143514.484000",
          "143516.984000",
          "143519.484000",
          "143521.984000",
          "143524.484000",
          "143526.984000",
          "143529.484000",
          "143531.984000",
          "143534.484000",
          "143536.984000",
          "143539.484000",
          "143541.984000",
          "143544.484000",
          "143546.984000",
          "143549.484000",
          "143551.984000",
          "143554.484000",
          "143556.984000",
          "143559.484000",
          "143601.984000",
          "143604.484000",
          "143606.984000",
          "143609.484000",
          "143611.984000",
          "143614.484000",
          "143616.984000",
          "143619.484000",
          "143621.984000",
          "143624.484000",
          "143626.984000",
          "143629.484000",
          "143631.984000",
          "143634.484000",
          "143636.984000",
          "143639.484000",
          "143641.671000"
        ],
        "InstanceNumber": [
          1,
          2,
          3,
          4,
          5,
          6,
          7,
          8,
          9,
          10,
          11,
          12,
          13,
          14,
          15,
          16,
          17,
          18,
          19,
          20,
          21,
          22,
          23,
          24,
          25,
          26,
          27,
          28,
          29,
          30,
          31,
          32,
          33,
          34,
          35,
          36,
          37,
          38,
          39,
          40,
          41,
          42,
          43,
          44,
          45,
          46,
          47,
          48,
          49,
          50,
          51,
          52,
          53,
          54,
          55,
          56,
          57,
          58,
          59,
          60,
          61,
          62,
          63,
          64,
          65,
          66,
          67,
          68,
          69,
          70,
          71,
          72,
          73,
          74,
          75,
          76,
          77,
          78,
          79,
          80,
          81,
          82,
          83,
          84,
          85,
          86,
          87,
          88,
          89,
          90,
          91,
          92,
          93,
          94,
          95,
          96,
          97,
          98,
          99,
          100,
          101,
          102,
          103,
          104,
          105,
          106,
          107,
          108,
          109,
          110,
          111,
          112,
          113,
          114,
          115,
          116,
          117,
          118,
          119,
          120,
          121,
          122,
          123,
          124,
          125,
          126,
          127,
          128,
          129,
          130,
          131,
          132,
          133,
          134,
          135,
          136,
          137,
          138,
          139,
          140,
          141,
          142,
          143,
          144,
          145,
          146,
          147,
          148,
          149,
          150,
          151,
          152,
          153,
          154,
          155,
          156,
          157,
          158,
          159,
          160,
          161,
          162,
          163,
          164
        ],
        "LargestImagePixelValue": [
          1298,
          1308,
          1342,
          1337,
          1315,
          1323,
          1328,
          1266,
          1283,
          1278,
          1314,
          1323,
          1219,
          1232,
          1258,
          1265,
          1322,
          1333,
          1375,
          1246,
          1232,
          1250,
          1288,
          1301,
          1298,
          1330,
          1305,
          1247,
          1280,
          1239,
          1234,
          1297,
          1286,
          1274,
          1248,
          1281,
          1278,
          1313,
          1236,
          1281,
          1262,
          1234,
          1281,
          1296,
          1252,
          1300,
          1361,
          1276,
          1304,
          1288,
          1414,
          1286,
          1325,
          1265,
          1278,
          1264,
          1325,
          1325,
          1232,
          1339,
          1417,
          1327,
          1255,
          1247,
          1434,
          1300,
          1362,
          1332,
          1419,
          1288,
          1350,
          1399,
          1272,
          1320,
          1247,
          1331,
          1240,
          1261,
          1488,
          1402,
          1412,
          1388,
          1327,
          1227,
          1303,
          1303,
          1288,
          1304,
          1261,
          1335,
          1333,
          1229,
          1262,
          1265,
          1287,
          1270,
          1248,
          1264,
          1266,
          1257,
          1233,
          1320,
          1275,
          1313,
          1384,
          1386,
          1301,
          1251,
          1339,
          1267,
          1238,
          1264,
          1262,
          1329,
          1300,
          1315,
          1257,
          1233,
          1292,
          1274,
          1262,
          1274,
          1246,
          1287,
          1253,
          1289,
          1398,
          1378,
          1319,
          1304,
          1283,
          1241,
          1259,
          1267,
          1255,
          1260,
          1243,
          1242,
          1303,
          1261,
          1270,
          1340,
          1363,
          1412,
          1316,
          1355,
          1262,
          1328,
          1295,
          1307,
          1249,
          1269,
          1240,
          1288,
          1443,
          1385,
          1362,
          1311,
          1312,
          1340,
          1336,
          1298,
          1296,
          1301
        ],
        "WindowCenter": [
          591.0,
          590.0,
          587.0,
          588.0,
          587.0,
          587.0,
          587.0,
          587.0,
          587.0,
          587.0,
          588.0,
          588.0,
          587.0,
          587.0,
          587.0,
          588.0,
          588.0,
          588.0,
          589.0,
          588.0,
          588.0,
          587.0,
          588.0,
          588.0,
          588.0,
          588.0,
          588.0,
          588.0,
          588.0,
          587.0,
          588.0,
          587.0,
          587.0,
          587.0,
          586.0,
          586.0,
          587.0,
          586.0,
          588.0,
          587.0,
          587.0,
          588.0,
          588.0,
          587.0,
          587.0,
          588.0,
          588.0,
          588.0,
          586.0,
          589.0,
          588.0,
          586.0,
          586.0,
          587.0,
          589.0,
          588.0,
          589.0,
          585.0,
          587.0,
          588.0,
          588.0,
          586.0,
          586.0,
          586.0,
          587.0,
          587.0,
          588.0,
          588.0,
          588.0,
          588.0,
          589.0,
          587.0,
          587.0,
          587.0,
          586.0,
          586.0,
          587.0,
          588.0,
          588.0,
          588.0,
          589.0,
          588.0,
          586.0,
          586.0,
          586.0,
          585.0,
          587.0,
          587.0,
          588.0,
          587.0,
          587.0,
          586.0,
          587.0,
          588.0,
          588.0,
          587.0,
          587.0,
          587.0,
          586.0,
          586.0,
          585.0,
          586.0,
          587.0,
          587.0,
          587.0,
          588.0,
          588.0,
          586.0,
          587.0,
          586.0,
          585.0,
          587.0,
          586.0,
          587.0,
          587.0,
          588.0,
          587.0,
          586.0,
          588.0,
          588.0,
          588.0,
          588.0,
          587.0,
          586.0,
          587.0,
          588.0,
          587.0,
          586.0,
          587.0,
          586.0,
          586.0,
          587.0,
          587.0,
          587.0,
          587.0,
          587.0,
          586.0,
          587.0,
          586.0,
          586.0,
          587.0,
          587.0,
          587.0,
          589.0,
          587.0,
          587.0,
          586.0,
          587.0,
          587.0,
          588.0,
