{
  "aor": 0.0030012804878048775,
  "aqi": 0.006102306890243904,
  "bids_meta": {
    "AcquisitionMatrixPE": 64,
    "AcquisitionNumber": 1,
    "AcquisitionTime": "13:56:56.577500",
    "BandwidthPerPixelPhaseEncode": 26.483,
    "BaseResolution": 64,
    "BodyPartExamined": "HEAD",
    "CogAtlasID": "TODO",
    "ConversionSoftware": "dcm2niix",
    "ConversionSoftwareVersion": "v1.0.20171017 GCC6.3.0",
    "DerivedVendorReportedEchoSpacing": 0.000590001,
    "DeviceSerialNumber": "35177",
    "DwellTime": 4.1e-06,
    "EchoTime": 0.027,
    "EffectiveEchoSpacing": 0.000590001,
    "FlipAngle": 90,
    "ImageOrientationPatientDICOM": [
      0.998027,
      0.0455957,
      0.0431735,
      -0.056165,
      0.955658,
      0.289074
    ],
    "ImageType": [
      "ORIGINAL",
      "PRIMARY",
      "M",
      "ND",
      "NORM",
      "MOSAIC"
    ],
    "InPlanePhaseEncodingDirectionDICOM": "COL",
    "InstitutionAddress": "Scott_Ave._4525_St._Louis_MO_US_63110",
    "InstitutionName": "Washington_University",
    "InstitutionalDepartmentName": "Department",
    "MRAcquisitionType": "2D",
    "MagneticFieldStrength": 3,
    "Manufacturer": "Siemens",
    "ManufacturersModelName": "TrioTim",
    "Modality": "MR",
    "PartialFourier": 1,
    "PatientPosition": "HFS",
    "PercentPhaseFOV": 100,
    "PhaseEncodingDirection": "j-",
    "PhaseEncodingSteps": 64,
    "PhaseResolution": 1,
    "PixelBandwidth": 1905,
    "ProcedureStepDescription": "head_GREENE",
    "ProtocolName": "ep2d_bold_movie_rest3A",
    "PulseSequenceDetails": "%SiemensSeq%_ep2d_bold",
    "ReceiveCoilName": "HeadMatrix",
    "ReconMatrixPE": 64,
    "RepetitionTime": 2.5,
    "SAR": 0.15792,
    "ScanOptions": "FS",
    "ScanningSequence": "EP",
    "SequenceName": "_epfid2d1_64",
    "SequenceVariant": "SK",
    "SeriesDescription": "ep2d_bold_movie_rest3A",
    "SeriesNumber": 7,
    "ShimSetting": [
      -212,
      -19588,
      8007,
      441,
      122,
      -326,
      -139,
      -25
    ],
    "SliceThickness": 4,
    "SliceTiming": [
      1.255,
      0,
      1.3325,
      0.0775,
      1.4125,
      0.1575,
      1.49,
      0.235,
      1.5675,
      0.3125,
      1.6475,
      0.3925,
      1.725,
      0.47,
      1.8025,
      0.5475,
      1.8825,
      0.6275,
      1.96,
      0.705,
      2.0375,
      0.785,
      2.1175,
      0.8625,
      2.195,
      0.94,
      2.275,
      1.02,
      2.3525,
      1.0975,
      2.43,
      1.175
    ],
    "SoftwareVersions": "syngo_MR_B17",
    "SpacingBetweenSlices": 4,
    "StationName": "MRC35177",
    "TaskName": "restmovienofeedback",
    "TotalReadoutTime": 0.0371701,
    "TxRefAmp": 343.009,
    "dataset": "ds000256",
    "dcmmeta_affine": [
      [
        -3.9921064376831055,
        -0.22466008365154266,
        0.11231432110071182,
        136.10104370117188
      ],
      [
        -0.18238267302513123,
        3.8226311206817627,
        1.163712739944458,
        -115.7879638671875
      ],
      [
        0.17269401252269745,
        -1.1562951803207397,
        3.825331211090088,
        13.105631828308105
      ],
      [
        0.0,
        0.0,
        0.0,
        1.0
      ]
    ],
    "dcmmeta_reorient_transform": [
      [
        0.0,
        -1.0,
        0.0,
        63.0
      ],
      [
        1.0,
        0.0,
        0.0,
        0.0
      ],
      [
        0.0,
        0.0,
        1.0,
        0.0
      ],
      [
        0.0,
        0.0,
        0.0,
        1.0
      ]
    ],
    "dcmmeta_shape": [
      64,
      64,
      32,
      164
    ],
    "dcmmeta_slice_dim": 2,
    "dcmmeta_version": 0.6,
    "global": {
      "const": {
        "AccessionNumber": ".",
        "AcquisitionMatrix": [
          64,
          0,
          0,
          64
        ],
        "AngioFlag": "N",
        "BitsAllocated": 16,
        "BitsStored": 12,
        "BodyPartExamined": "HEAD",
        "Columns": 384,
        "DeidentificationMethodCodeSequence": [
          {
            "CodeMeaning": "XNAT Edit Script",
            "CodeValue": "625500",
            "CodingSchemeDesignator": "XNAT",
            "CodingSchemeVersion": "0.1"
          }
        ],
        "EchoNumbers": 1,
        "EchoTime": 27.0,
        "EchoTrainLength": 1,
        "FlipAngle": 90.0,
        "HighBit": 11,
        "ImageOrientationPatient": [
          0.99802659465083,
          0.04559566974834,
          0.04317350194114,
          -0.0561650222241,
          0.95565779658628,
          0.28907380736141
        ],
        "ImagePositionPatient": [
          -724.73886697266,
          -765.84002010473,
          -272.37924569341
        ],
        "ImageType": [
          "ORIGINAL",
          "PRIMARY",
          "M",
          "ND",
          "NORM",
          "MOSAIC"
        ],
        "ImagedNucleus": "1H",
        "ImagingFrequency": 123.255865,
        "InPlanePhaseEncodingDirection": "COL",
        "MRAcquisitionType": "2D",
        "MagneticFieldStrength": 3.0,
        "Manufacturer": "SIEMENS",
        "ManufacturerModelName": "TrioTim",
        "Modality": "MR",
        "NumberOfAverages": 1.0,
        "NumberOfPhaseEncodingSteps": 64,
        "PercentPhaseFieldOfView": 100.0,
        "PercentSampling": 100.0,
        "PerformedProcedureStepStartTime": "133256.609000",
        "PhotometricInterpretation": "MONOCHROME2",
        "PixelBandwidth": 1905.0,
        "PixelRepresentation": 0,
        "PixelSpacing": [
          4.0,
          4.0
        ],
        "PositionReferenceIndicator": "",
        "ProtocolName": "ep2d_bold_movie_rest3A",
        "RepetitionTime": 2500.0,
        "Rows": 384,
        "SAR": 0.15792030170501,
        "SamplesPerPixel": 1,
        "ScanOptions": "FS",
        "ScanningSequence": "EP",
        "SequenceName": "*epfid2d1_64",
        "SequenceVariant": "SK",
        "SeriesDescription": "ep2d_bold_movie_rest3A",
        "SeriesNumber": 7,
        "SeriesTime": "135659.140000",
        "SliceLocation": -17.331113037268,
        "SliceThickness": 4.0,
        "SmallestImagePixelValue": 0,
        "SoftwareVersions": "syngo MR B17",
        "SpacingBetweenSlices": 4.0000001477151,
        "SpecificCharacterSet": "ISO_IR 100",
        "StudyID": "1",
        "StudyTime": "133256.562000",
        "TransmitCoilName": "Body",
        "VariableFlipAngleFlag": "N",
        "WindowCenterWidthExplanation": "Algo1",
        "dBdt": 0.0
      },
      "slices": {}
    },
    "modality": "bold",
    "subject_id": "CTS225",
    "task_id": "restmovienofeedback",
    "time": {
      "samples": {
        "AcquisitionNumber": [
          1,
          2,
          3,
          4,
          5,
          6,
          7,
          8,
          9,
          10,
          11,
          12,
          13,
          14,
          15,
          16,
          17,
          18,
          19,
          20,
          21,
          22,
          23,
          24,
          25,
          26,
          27,
          28,
          29,
          30,
          31,
          32,
          33,
          34,
          35,
          36,
          37,
          38,
          39,
          40,
          41,
          42,
          43,
          44,
          45,
          46,
          47,
          48,
          49,
          50,
          51,
          52,
          53,
          54,
          55,
          56,
          57,
          58,
          59,
          60,
          61,
          62,
          63,
          64,
          65,
          66,
          67,
          68,
          69,
          70,
          71,
          72,
          73,
          74,
          75,
          76,
          77,
          78,
          79,
          80,
          81,
          82,
          83,
          84,
          85,
          86,
          87,
          88,
          89,
          90,
          91,
          92,
          93,
          94,
          95,
          96,
          97,
          98,
          99,
          100,
          101,
          102,
          103,
          104,
          105,
          106,
          107,
          108,
          109,
          110,
          111,
          112,
          113,
          114,
          115,
          116,
          117,
          118,
          119,
          120,
          121,
          122,
          123,
          124,
          125,
          126,
          127,
          128,
          129,
          130,
          131,
          132,
          133,
          134,
          135,
          136,
          137,
          138,
          139,
          140,
          141,
          142,
          143,
          144,
          145,
          146,
          147,
          148,
          149,
          150,
          151,
          152,
          153,
          154,
          155,
          156,
          157,
          158,
          159,
          160,
          161,
          162,
          163,
          164
        ],
        "AcquisitionTime": [
          "135656.577500",
          "135659.087500",
          "135701.597500",
          "135704.107500",
          "135706.617500",
          "135709.127500",
          "135711.637500",
          "135714.147500",
          "135716.657500",
          "135719.167500",
          "135721.677500",
          "135724.187500",
          "135726.697500",
          "135729.207500",
          "135731.717500",
          "135734.227500",
          "135736.737500",
          "135739.247500",
          "135741.757500",
          "135744.267500",
          "135746.777500",
          "135749.287500",
          "135751.797500",
          "135754.307500",
          "135756.817500",
          "135759.327500",
          "135801.837500",
          "135804.347500",
          "135806.857500",
          "135809.367500",
          "135811.877500",
          "135814.387500",
          "135816.897500",
          "135819.407500",
          "135821.917500",
          "135824.427500",
          "135826.937500",
          "135829.447500",
          "135831.957500",
          "135834.467500",
          "135836.977500",
          "135839.487500",
          "135841.997500",
          "135844.507500",
          "135847.017500",
          "135849.527500",
          "135852.040000",
          "135854.550000",
          "135857.060000",
          "135859.570000",
          "135902.080000",
          "135904.590000",
          "135907.100000",
          "135909.610000",
          "135912.120000",
          "135914.630000",
          "135917.140000",
          "135919.650000",
          "135922.160000",
          "135924.670000",
          "135927.180000",
          "135929.690000",
          "135932.200000",
          "135934.710000",
          "135937.220000",
          "135939.730000",
          "135942.240000",
          "135944.750000",
          "135947.260000",
          "135949.770000",
          "135952.280000",
          "135954.790000",
          "135957.300000",
          "135959.810000",
          "140002.320000",
          "140004.830000",
          "140007.340000",
          "140009.850000",
          "140012.360000",
          "140014.870000",
          "140017.380000",
          "140019.890000",
          "140022.400000",
          "140024.910000",
          "140027.420000",
          "140029.930000",
          "140032.440000",
          "140034.950000",
          "140037.460000",
          "140039.970000",
          "140042.480000",
          "140044.990000",
          "140047.500000",
          "140050.010000",
          "140052.520000",
          "140055.030000",
          "140057.540000",
          "140100.050000",
          "140102.560000",
          "140105.070000",
          "140107.580000",
          "140110.090000",
          "140112.600000",
          "140115.110000",
          "140117.620000",
          "140120.130000",
          "140122.640000",
          "140125.150000",
          "140127.662500",
          "140130.172500",
          "140132.682500",
          "140135.192500",
          "140137.702500",
          "140140.212500",
          "140142.722500",
          "140145.232500",
          "140147.742500",
          "140150.252500",
          "140152.762500",
          "140155.272500",
          "140157.782500",
          "140200.292500",
          "140202.802500",
          "140205.312500",
          "140207.822500",
          "140210.332500",
          "140212.842500",
          "140215.352500",
          "140217.862500",
          "140220.372500",
          "140222.882500",
          "140225.392500",
          "140227.902500",
          "140230.412500",
          "140232.922500",
          "140235.432500",
          "140237.942500",
          "140240.452500",
          "140242.962500",
          "140245.472500",
          "140247.982500",
          "140250.492500",
          "140253.002500",
          "140255.512500",
          "140258.022500",
          "140300.532500",
          "140303.042500",
          "140305.552500",
          "140308.062500",
          "140310.572500",
          "140313.082500",
          "140315.592500",
          "140318.102500",
          "140320.612500",
          "140323.122500",
          "140325.632500",
          "140328.142500",
          "140330.652500",
          "140333.162500",
          "140335.672500",
          "140338.182500",
          "140340.692500",
          "140343.202500",
          "140345.712500"
        ],
        "ContentTime": [
          "135659.140000",
          "135701.640000",
          "135704.140000",
          "135706.640000",
          "135709.140000",
          "135711.640000",
          "135714.140000",
          "135716.640000",
          "135719.140000",
          "135721.640000",
          "135724.140000",
          "135726.640000",
          "135729.140000",
          "135731.640000",
          "135734.140000",
          "135736.640000",
          "135739.140000",
          "135741.640000",
          "135744.140000",
          "135746.640000",
          "135749.140000",
          "135751.640000",
          "135754.140000",
          "135756.640000",
          "135759.140000",
          "135801.640000",
          "135804.140000",
          "135806.640000",
          "135809.140000",
          "135811.640000",
          "135814.140000",
          "135816.640000",
          "135819.140000",
          "135821.640000",
          "135824.140000",
          "135826.640000",
          "135829.140000",
          "135831.640000",
          "135834.140000",
          "135836.640000",
          "135839.140000",
          "135841.640000",
          "135844.140000",
          "135846.640000",
          "135849.140000",
          "135851.640000",
          "135854.140000",
          "135856.640000",
          "135859.140000",
          "135901.640000",
          "135904.140000",
          "135906.640000",
          "135909.140000",
          "135911.640000",
          "135914.140000",
          "135916.640000",
          "135919.140000",
          "135921.640000",
          "135924.140000",
          "135926.640000",
          "135929.140000",
          "135931.640000",
          "135934.140000",
          "135936.640000",
          "135939.140000",
          "135941.640000",
          "135944.140000",
          "135946.640000",
          "135949.140000",
          "135951.640000",
          "135954.140000",
          "135956.640000",
          "135959.140000",
          "140001.640000",
          "140004.140000",
          "140006.640000",
          "140009.140000",
          "140011.640000",
          "140014.140000",
          "140016.640000",
          "140019.140000",
          "140021.640000",
          "140024.140000",
          "140026.640000",
          "140029.140000",
          "140031.640000",
          "140034.140000",
          "140036.640000",
          "140039.140000",
          "140041.640000",
          "140044.140000",
          "140046.640000",
          "140049.140000",
          "140051.640000",
          "140054.140000",
          "140056.640000",
          "140059.140000",
          "140101.640000",
          "140104.140000",
          "140106.640000",
          "140109.140000",
          "140111.640000",
          "140114.140000",
          "140116.640000",
          "140119.140000",
          "140121.640000",
          "140124.140000",
          "140126.640000",
          "140129.140000",
          "140131.640000",
          "140134.140000",
          "140136.640000",
          "140139.140000",
          "140141.640000",
          "140144.140000",
          "140146.640000",
          "140149.140000",
          "140151.640000",
          "140154.140000",
          "140156.640000",
          "140159.140000",
          "140201.640000",
          "140204.140000",
          "140206.640000",
          "140209.140000",
          "140211.640000",
          "140214.140000",
          "140216.640000",
          "140219.140000",
          "140221.640000",
          "140224.140000",
          "140226.640000",
          "140229.140000",
          "140231.640000",
          "140234.140000",
          "140236.640000",
          "140239.140000",
          "140241.640000",
          "140244.140000",
          "140246.640000",
          "140249.140000",
          "140251.640000",
          "140254.140000",
          "140256.640000",
          "140259.140000",
          "140301.640000",
          "140304.140000",
          "140306.640000",
          "140309.140000",
          "140311.640000",
          "140314.140000",
          "140316.640000",
          "140319.140000",
          "140321.640000",
          "140324.140000",
          "140326.640000",
          "140329.140000",
          "140331.640000",
          "140334.140000",
          "140336.640000",
          "140339.140000",
          "140341.640000",
          "140344.140000",
          "140346.578000"
        ],
        "InstanceCreationTime": [
          "135659.140000",
          "135701.640000",
          "135704.140000",
          "135706.640000",
          "135709.140000",
          "135711.640000",
          "135714.140000",
          "135716.640000",
          "135719.140000",
          "135721.640000",
          "135724.140000",
          "135726.640000",
          "135729.140000",
          "135731.640000",
          "135734.140000",
          "135736.640000",
          "135739.140000",
          "135741.640000",
          "135744.140000",
          "135746.640000",
          "135749.140000",
          "135751.640000",
          "135754.140000",
          "135756.640000",
          "135759.140000",
          "135801.640000",
          "135804.140000",
          "135806.640000",
          "135809.140000",
          "135811.640000",
          "135814.140000",
          "135816.640000",
          "135819.140000",
          "135821.640000",
          "135824.140000",
          "135826.640000",
          "135829.140000",
          "135831.640000",
          "135834.140000",
          "135836.640000",
          "135839.140000",
          "135841.640000",
          "135844.140000",
          "135846.640000",
          "135849.140000",
          "135851.640000",
          "135854.140000",
          "135856.640000",
          "135859.140000",
          "135901.640000",
          "135904.140000",
          "135906.640000",
          "135909.140000",
          "135911.640000",
          "135914.140000",
          "135916.640000",
          "135919.140000",
          "135921.640000",
          "135924.140000",
          "135926.640000",
          "135929.140000",
          "135931.640000",
          "135934.140000",
          "135936.640000",
          "135939.140000",
          "135941.640000",
          "135944.140000",
          "135946.640000",
          "135949.140000",
          "135951.640000",
          "135954.140000",
          "135956.640000",
          "135959.140000",
          "140001.640000",
          "140004.140000",
          "140006.640000",
          "140009.140000",
          "140011.640000",
          "140014.140000",
          "140016.640000",
          "140019.140000",
          "140021.640000",
          "140024.140000",
          "140026.640000",
          "140029.140000",
          "140031.640000",
          "140034.140000",
          "140036.640000",
          "140039.140000",
          "140041.640000",
          "140044.140000",
          "140046.640000",
          "140049.140000",
          "140051.640000",
          "140054.140000",
          "140056.640000",
          "140059.140000",
          "140101.640000",
          "140104.140000",
          "140106.640000",
          "140109.140000",
          "140111.640000",
          "140114.140000",
          "140116.640000",
          "140119.140000",
          "140121.640000",
          "140124.140000",
          "140126.640000",
          "140129.140000",
          "140131.640000",
          "140134.140000",
          "140136.640000",
          "140139.140000",
          "140141.640000",
          "140144.140000",
          "140146.640000",
          "140149.140000",
          "140151.640000",
          "140154.140000",
          "140156.640000",
          "140159.140000",
          "140201.640000",
          "140204.140000",
          "140206.640000",
          "140209.140000",
          "140211.640000",
          "140214.140000",
          "140216.640000",
          "140219.140000",
          "140221.640000",
          "140224.140000",
          "140226.640000",
          "140229.140000",
          "140231.640000",
          "140234.140000",
          "140236.640000",
          "140239.140000",
          "140241.640000",
          "140244.140000",
          "140246.640000",
          "140249.140000",
          "140251.640000",
          "140254.140000",
          "140256.640000",
          "140259.140000",
          "140301.640000",
          "140304.140000",
          "140306.640000",
          "140309.140000",
          "140311.640000",
          "140314.140000",
          "140316.640000",
          "140319.140000",
          "140321.640000",
          "140324.140000",
          "140326.640000",
          "140329.140000",
          "140331.640000",
          "140334.140000",
          "140336.640000",
          "140339.140000",
          "140341.640000",
          "140344.140000",
          "140346.578000"
        ],
        "InstanceNumber": [
          1,
          2,
          3,
          4,
          5,
          6,
          7,
          8,
          9,
          10,
          11,
          12,
          13,
          14,
          15,
          16,
          17,
          18,
          19,
          20,
          21,
          22,
          23,
          24,
          25,
          26,
          27,
          28,
          29,
          30,
          31,
          32,
          33,
          34,
          35,
          36,
          37,
          38,
          39,
          40,
          41,
          42,
          43,
          44,
          45,
          46,
          47,
          48,
          49,
          50,
          51,
          52,
          53,
          54,
          55,
          56,
          57,
          58,
          59,
          60,
          61,
          62,
          63,
          64,
          65,
          66,
          67,
          68,
          69,
          70,
          71,
          72,
          73,
          74,
          75,
          76,
          77,
          78,
          79,
          80,
          81,
          82,
          83,
          84,
          85,
          86,
          87,
          88,
          89,
          90,
          91,
          92,
          93,
          94,
          95,
          96,
          97,
          98,
          99,
          100,
          101,
          102,
          103,
          104,
          105,
          106,
          107,
          108,
          109,
          110,
          111,
          112,
          113,
          114,
          115,
          116,
          117,
          118,
          119,
          120,
          121,
          122,
          123,
          124,
          125,
          126,
          127,
          128,
          129,
          130,
          131,
          132,
          133,
          134,
          135,
          136,
          137,
          138,
          139,
          140,
          141,
          142,
          143,
          144,
          145,
          146,
          147,
          148,
          149,
          150,
          151,
          152,
          153,
          154,
          155,
          156,
          157,
          158,
          159,
          160,
          161,
          162,
          163,
          164
        ],
        "LargestImagePixelValue": [
          1268,
          1313,
          1351,
          1336,
          1308,
          1323,
          1370,
          1265,
          1251,
          1314,
          1238,
          1305,
          1311,
          1349,
          1285,
          1293,
          1325,
          1323,
          1284,
          1354,
          1275,
          1301,
          1455,
          1267,
          1294,
          1296,
          1309,
          1290,
          1304,
          1293,
          1303,
          1288,
          1289,
          1309,
          1287,
          1374,
          1298,
          1294,
          1311,
          1334,
          1293,
          1308,
          1301,
          1272,
          1340,
          1323,
          1333,
          1401,
          1314,
          1304,
          1354,
          1353,
          1338,
          1288,
          1324,
          1272,
          1313,
          1318,
          1340,
          1304,
          1255,
          1320,
          1329,
          1406,
          1313,
          1272,
          1327,
          1322,
          1312,
          1323,
          1333,
          1321,
          1338,
          1357,
          1307,
          1299,
          1323,
          1348,
          1379,
          1321,
          1340,
          1302,
          1247,
          1338,
          1364,
          1323,
          1358,
          1318,
          1358,
          1300,
          1364,
          1323,
          1332,
          1314,
          1327,
          1334,
          1336,
          1414,
          1306,
          1334,
          1382,
          1319,
          1320,
          1331,
          1338,
          1348,
          1370,
          1325,
          1341,
          1363,
          1341,
          1305,
          1301,
          1295,
          1335,
          1318,
          1342,
          1352,
          1348,
          1301,
          1344,
          1328,
          1323,
          1337,
          1351,
          1353,
          1347,
          1364,
          1293,
          1296,
          1302,
          1304,
          1320,
          1279,
          1275,
          1306,
          1296,
          1322,
          1342,
          1318,
          1274,
          1313,
          1299,
          1322,
          1374,
          1263,
          1298,
          1318,
          1313,
          1313,
          1277,
          1348,
          1294,
          1304,
          1318,
          1317,
          1267,
          1304,
          1363,
          1323,
          1431,
          1301,
          1274,
          1334
        ],
        "WindowCenter": [
          591.0,
          589.0,
          590.0,
          590.0,
          588.0,
          590.0,
          588.0,
          588.0,
          586.0,
          589.0,
          587.0,
          589.0,
          588.0,
          589.0,
          586.0,
          588.0,
          590.0,
          590.0,
          590.0,
          589.0,
          587.0,
          590.0,
          590.0,
          587.0,
          588.0,
          588.0,
          588.0,
          589.0,
          589.0,
          588.0,
          591.0,
          589.0,
          590.0,
          590.0,
          589.0,
          588.0,
          589.0,
          589.0,
          588.0,
          589.0,
          589.0,
          589.0,
          589.0,
          589.0,
          589.0,
          589.0,
          590.0,
          591.0,
          590.0,
          589.0,
          589.0,
          589.0,
          589.0,
          589.0,
          588.0,
          589.0,
          589.0,
          591.0,
          591.0,
          590.0,
          589.0,
          591.0,
          590.0,
          589.0,
          589.0,
          589.0,
          588.0,
          589.0,
          589.0,
          589.0,
          589.0,
          589.0,
          590.0,
          590.0,
          593.0,
          589.0,
          590.0,
          589.0,
          588.0,
          589.0,
          590.0,
          589.0,
          589.0,
          590.0,
          588.0,
          587.0,
          589.0,
          588.0,
          590.0,
          589.0,
          589.0,
          589.0,
          589.0,
          588.0,
          587.0,
          589.0,
          590.0,
          589.0,
          589.0,
          590.0,
          589.0,
          589.0,
          587.0,
          587.0,
          589.0,
          589.0,
          588.0,
          589.0,
          590.0,
          588.0,
          590.0,
          590.0,
          589.0,
          588.0,
          590.0,
          589.0,
          590.0,
          590.0,
          589.0,
          588.0,
          589.0,
          589.0,
          589.0,
          590.0,
          589.0,
          589.0,
          591.0,
          590.0,
          590.0,
          590.0,
          589.0,
          589.0,
          590.0,
          589.0,
          589.0,
          589.0,
          587.0,
          589.0,
          589.0,
          590.0,
          588.0,
          589.0,
          589.0,
          589.0,
          589.0,
          588.0,
          589.0,
          589.0,
